# Matter power spectrum P(k) at redshift z=0
# for k=9.63987e-06 to 1.694 h/Mpc,
# number of wavenumbers equal to 561
#    1:k (h/Mpc)              2:P (Mpc/h)^3        
       9.639867365113e-06       6.075740599329e+01 
       2.213210501839e-05       1.351408299278e+02 
       3.466442489589e-05       2.080664610528e+02 
       4.726853408020e-05       2.803673269502e+02 
       5.997662285939e-05       3.533128604310e+02 
       7.282163475622e-05       4.257674683657e+02 
       8.583754457013e-05       4.986655428043e+02 
       9.905964793110e-05       5.722437075054e+02 
       1.125248658920e-04       6.468125464630e+02 
       1.262720681168e-04       7.224823767437e+02 
       1.403424182370e-04       7.995470415085e+02 
       1.547797449226e-04       8.788013184365e+02 
       1.696309421067e-04       9.596677089456e+02 
       1.849464015732e-04       1.042469549269e+03 
       2.007804806865e-04       1.127695621730e+03 
       2.171920073393e-04       1.215446016398e+03 
       2.342448230886e-04       1.307081157819e+03 
       2.520083638042e-04       1.401429535785e+03 
       2.705582747833e-04       1.501363393168e+03 
       2.899770539512e-04       1.603616515576e+03 
       3.103547122250e-04       1.710363455771e+03 
       3.317894340481e-04       1.823963887166e+03 
       3.543882132259e-04       1.941150883231e+03 
       3.782674292364e-04       2.067475812380e+03 
       4.035533170382e-04       2.198862173884e+03 
       4.303822691617e-04       2.336598403689e+03 
       4.589008931311e-04       2.484875604277e+03 
       4.892657312545e-04       2.639181521713e+03 
       5.216425357381e-04       2.805479905345e+03 
       5.562049833125e-04       2.980043509251e+03 
       5.931327147518e-04       3.167080604910e+03 
       6.326086015250e-04       3.365152223424e+03 
       6.748151802311e-04       3.575449809206e+03 
       7.199302599987e-04       3.798167687996e+03 
       7.681217995194e-04       4.035137470742e+03 
       8.195422633301e-04       4.285931338150e+03 
       8.743227873692e-04       4.551387938867e+03 
       9.325675892298e-04       4.830367353219e+03 
       9.943491213302e-04       5.124313489415e+03 
       1.059704459870e-03       5.431821899277e+03 
       1.128633334839e-03       5.752930117441e+03 
       1.201098041745e-03       6.086747130969e+03 
       1.277025260956e-03       6.432634108210e+03 
       1.356309588061e-03       6.789416197961e+03 
       1.438818393979e-03       7.156157009761e+03 
       1.524397520905e-03       7.531520551386e+03 
       1.612877293385e-03       7.914262759878e+03 
       1.704078374319e-03       8.303401046292e+03 
       1.797817099592e-03       8.697623797683e+03 
       1.893910052350e-03       9.095475746395e+03 
       1.992177762202e-03       9.496143321826e+03 
       2.092447517766e-03       9.898339449907e+03 
       2.194555354948e-03       1.030130641598e+04 
       2.298347327682e-03       1.070398158385e+04 
       2.403680187414e-03       1.110578434565e+04 
       2.510421598919e-03       1.150617087421e+04 
       2.618450009800e-03       1.190396160273e+04 
       2.727654274759e-03       1.229894519505e+04 
       2.837933117408e-03       1.269041647168e+04 
       2.949194494541e-03       1.307839821751e+04 
       3.061354911937e-03       1.346207352261e+04 
       3.174338727332e-03       1.384134177253e+04 
       3.288077465432e-03       1.421566808456e+04 
       3.402509161469e-03       1.458508611618e+04 
       3.517577743457e-03       1.494922735682e+04 
       3.633232458686e-03       1.530809714732e+04 
       3.749427346722e-03       1.566140752179e+04 
       3.866120758879e-03       1.600914130133e+04 
       3.983274922686e-03       1.635111234929e+04 
       4.100855548893e-03       1.668735325744e+04 
       4.218831478099e-03       1.701770575122e+04 
       4.337174363777e-03       1.734224791441e+04 
       4.455858388497e-03       1.766086419859e+04 
       4.574860010153e-03       1.797357116425e+04 
       4.694157735231e-03       1.828037896368e+04 
       4.813731916292e-03       1.858122104574e+04 
       4.933564571118e-03       1.887621608267e+04 
       5.053639221170e-03       1.916548994999e+04 
       5.173940747244e-03       1.944602530579e+04 
       5.294455260424e-03       1.972396925413e+04 
       5.415169986637e-03       1.999309367830e+04 
       5.536073163284e-03       2.025133369430e+04 
       5.657153946617e-03       2.051561867752e+04 
       5.778402328651e-03       2.077379915377e+04 
       5.899809062565e-03       2.102863196697e+04 
       6.021365595643e-03       2.127001603968e+04 
       6.143064008935e-03       2.150950971838e+04 
       6.264896962906e-03       2.173462503586e+04 
       6.386857648408e-03       2.197065737818e+04 
       6.508939742419e-03       2.219282308944e+04 
       6.631137368037e-03       2.240767600502e+04 
       6.753445058260e-03       2.262214526338e+04 
       6.875857723186e-03       2.282462661542e+04 
       6.998370620247e-03       2.303128772766e+04 
       7.120979327188e-03       2.322662274752e+04 
       7.243679717488e-03       2.340690950267e+04 
       7.366467938006e-03       2.360566795283e+04 
       7.489340388595e-03       2.378732708169e+04 
       7.612293703518e-03       2.395952595396e+04 
       7.735324734476e-03       2.412737230768e+04 
       7.858430535091e-03       2.430732406748e+04 
       7.981608346710e-03       2.446572863374e+04 
       8.104855585402e-03       2.462745806855e+04 
       8.228169830038e-03       2.478541394892e+04 
       8.351548811344e-03       2.493425856391e+04 
       8.474990401856e-03       2.508127789133e+04 
       8.598492606677e-03       2.522401513170e+04 
       8.722053554973e-03       2.535971611164e+04 
       8.845671492140e-03       2.548758836429e+04 
       8.969344772587e-03       2.562511657896e+04 
       9.093071853071e-03       2.575074235530e+04 
       9.216851286550e-03       2.586838993890e+04 
       9.340681716502e-03       2.597895786806e+04 
       9.464561871666e-03       2.610251564054e+04 
       9.588490561187e-03       2.621216373792e+04 
       9.712466670109e-03       2.631978599427e+04 
       9.836489155209e-03       2.641484707909e+04 
       9.960557041126e-03       2.652104473462e+04 
       1.008466941678e-02       2.661603685409e+04 
       1.020882543204e-02       2.670804492388e+04 
       1.033302429464e-02       2.679746501214e+04 
       1.045726526730e-02       2.688021785115e+04 
       1.058154766506e-02       2.695736549059e+04 
       1.070587085280e-02       2.704180710581e+04 
       1.083023424294e-02       2.711359288810e+04 
       1.095463729329e-02       2.718325250362e+04 
       1.107907950504e-02       2.725327930274e+04 
       1.120356042092e-02       2.732044009686e+04 
       1.132807962348e-02       2.738072137641e+04 
       1.145263673344e-02       2.744163583205e+04 
       1.157723140823e-02       2.749512421914e+04 
       1.170186334058e-02       2.755114219701e+04 
       1.182653225722e-02       2.759288010157e+04 
       1.195123791768e-02       2.764571139740e+04 
       1.207598011316e-02       2.768427198026e+04 
       1.220075866547e-02       2.773080555270e+04 
       1.232557342612e-02       2.776352999217e+04 
       1.245042427534e-02       2.780778596311e+04 
       1.257531112129e-02       2.783357307260e+04 
       1.270023389928e-02       2.786550785120e+04 
       1.282519257106e-02       2.789495381096e+04 
       1.295018712412e-02       2.791858470548e+04 
       1.307521757112e-02       2.794599790202e+04 
       1.320028394930e-02       2.795787204932e+04 
       1.332538631997e-02       2.798382465677e+04 
       1.345052476804e-02       2.799346176748e+04 
       1.357569940157e-02       2.800536134134e+04 
       1.370091035139e-02       2.802088371624e+04 
       1.382615777071e-02       2.802889499962e+04 
       1.395144183484e-02       2.803340527090e+04 
       1.407676274084e-02       2.803790040586e+04 
       1.420212070733e-02       2.803713938048e+04 
       1.432751597419e-02       2.803271457935e+04 
       1.445294880240e-02       2.803009277057e+04 
       1.457841947385e-02       2.802544071709e+04 
       1.470392829119e-02       2.802085083789e+04 
       1.482947557772e-02       2.801212099656e+04 
       1.495506167729e-02       2.799369053095e+04 
       1.508068695421e-02       2.798561396659e+04 
       1.520635179320e-02       2.797137995533e+04 
       1.533205659938e-02       2.795316965024e+04 
       1.545780179825e-02       2.793327223445e+04 
       1.558358783570e-02       2.790774139097e+04 
       1.570941517803e-02       2.788603385867e+04 
       1.583528431203e-02       2.786051397385e+04 
       1.596119574503e-02       2.783666403640e+04 
       1.608715000498e-02       2.780705741024e+04 
       1.621314764059e-02       2.777341438315e+04 
       1.633918922145e-02       2.774031131349e+04 
       1.646527533812e-02       2.771195355143e+04 
       1.659140660236e-02       2.767492639647e+04 
       1.671758364729e-02       2.763345399496e+04 
       1.684380712755e-02       2.759900703746e+04 
       1.697007771953e-02       2.755994116767e+04 
       1.709639612164e-02       2.751825557664e+04 
       1.722276305449e-02       2.747404130373e+04 
       1.734917926118e-02       2.742979898880e+04 
       1.747564550760e-02       2.738430517904e+04 
       1.760216258267e-02       2.733398567649e+04 
       1.772873129871e-02       2.728642387374e+04 
       1.785535249172e-02       2.723469851860e+04 
       1.798202702176e-02       2.718391185871e+04 
       1.810875577328e-02       2.713102678125e+04 
       1.823553965552e-02       2.707416335250e+04 
       1.836237960289e-02       2.701862667307e+04 
       1.848927657537e-02       2.696395020185e+04 
       1.861623155898e-02       2.690382374800e+04 
       1.874324556618e-02       2.684201266680e+04 
       1.887031963637e-02       2.678161959408e+04 
       1.899745483633e-02       2.672086396700e+04 
       1.912465226074e-02       2.666012116131e+04 
       1.925191303274e-02       2.659602258214e+04 
       1.937923830438e-02       2.652806290686e+04 
       1.950662925724e-02       2.646087007602e+04 
       1.963408710299e-02       2.639679414568e+04 
       1.976161308398e-02       2.632751176857e+04 
       1.988920847386e-02       2.625827365600e+04 
       2.001687457821e-02       2.618631344281e+04 
       2.014461273520e-02       2.611679615498e+04 
       2.027242431626e-02       2.604402675303e+04 
       2.040031072683e-02       2.597168560203e+04 
       2.052827340700e-02       2.589756014729e+04 
       2.065631383234e-02       2.582275384506e+04 
       2.078443351461e-02       2.574466459821e+04 
       2.091263400261e-02       2.566935759996e+04 
       2.104091688294e-02       2.559244298847e+04 
       2.116928378091e-02       2.551346160285e+04 
       2.129773636138e-02       2.543210807221e+04 
       2.142627632967e-02       2.535173979312e+04 
       2.155490543249e-02       2.527301410819e+04 
       2.168362545890e-02       2.519147039973e+04 
       2.181243824131e-02       2.510939422733e+04 
       2.194134565648e-02       2.502803832422e+04 
       2.207034962658e-02       2.494204624582e+04 
       2.219945212031e-02       2.486058610880e+04 
       2.232865515397e-02       2.477438197376e+04 
       2.245796079265e-02       2.469073212218e+04 
       2.258737115141e-02       2.460452704869e+04 
       2.271688839651e-02       2.451650264855e+04 
       2.284651474669e-02       2.443196681634e+04 
       2.297625247445e-02       2.434275857966e+04 
       2.310610390743e-02       2.425629511573e+04 
       2.323607142982e-02       2.416780204597e+04 
       2.336615748374e-02       2.407708556671e+04 
       2.349636457078e-02       2.398831227485e+04 
       2.362669525351e-02       2.389876622618e+04 
       2.375715215704e-02       2.380830328320e+04 
       2.388773797072e-02       2.371680486881e+04 
       2.401845544976e-02       2.362552694876e+04 
       2.414930741699e-02       2.353445564581e+04 
       2.428029676468e-02       2.344279174718e+04 
       2.441142645640e-02       2.335018975552e+04 
       2.454269952891e-02       2.325771081183e+04 
       2.467411909417e-02       2.316395729346e+04 
       2.480568834138e-02       2.307091115767e+04 
       2.493741053911e-02       2.297776656865e+04 
       2.506928903751e-02       2.288369382851e+04 
       2.520132727053e-02       2.278837653081e+04 
       2.533352875832e-02       2.269397790155e+04 
       2.546589710963e-02       2.260028886156e+04 
       2.559843602431e-02       2.250426628068e+04 
       2.573114929595e-02       2.240942605738e+04 
       2.586404081454e-02       2.231459504319e+04 
       2.599711456926e-02       2.221740468474e+04 
       2.613037465137e-02       2.212292493822e+04 
       2.626382525721e-02       2.202696838183e+04 
       2.639747069129e-02       2.193034617601e+04 
       2.653131536950e-02       2.183448880364e+04 
       2.666536382244e-02       2.173708259959e+04 
       2.679962069887e-02       2.164148700685e+04 
       2.693409076929e-02       2.154447018315e+04 
       2.706877892966e-02       2.144815698803e+04 
       2.720369020524e-02       2.135141824570e+04 
       2.733882975460e-02       2.125405733013e+04 
       2.747420287377e-02       2.115681676546e+04 
       2.760981500058e-02       2.106037692208e+04 
       2.774567171907e-02       2.096274788601e+04 
       2.788177876423e-02       2.086600172506e+04 
       2.801814202677e-02       2.076788017939e+04 
       2.815476755821e-02       2.067104040564e+04 
       2.829166157607e-02       2.057394393344e+04 
       2.842883046934e-02       2.047561687467e+04 
       2.856628080412e-02       2.037867809228e+04 
       2.870401932955e-02       2.028242691365e+04 
       2.884205298393e-02       2.018544113123e+04 
       2.898038890115e-02       2.008758556543e+04 
       2.911903441730e-02       1.999067818975e+04 
       2.925799707769e-02       1.989411979504e+04 
       2.939728464404e-02       1.979732217891e+04 
       2.953690510209e-02       1.970010283289e+04 
       2.967686666945e-02       1.960270810313e+04 
       2.981717780386e-02       1.950653384856e+04 
       2.995784721179e-02       1.940945291786e+04 
       3.009888385743e-02       1.931326297152e+04 
       3.024029697204e-02       1.921673438802e+04 
       3.038209606385e-02       1.912010127779e+04 
       3.052429092823e-02       1.902415408341e+04 
       3.066689165853e-02       1.892820182411e+04 
       3.080990865726e-02       1.883150430259e+04 
       3.095335264789e-02       1.873589310290e+04 
       3.109723468722e-02       1.864027192994e+04 
       3.124156617826e-02       1.854398925287e+04 
       3.138635888382e-02       1.844952378177e+04 
       3.153162494077e-02       1.835354892526e+04 
       3.167737687490e-02       1.825898296638e+04 
       3.182362761666e-02       1.816395431541e+04 
       3.197039051761e-02       1.806940568303e+04 
       3.211767936773e-02       1.797412818772e+04 
       3.226550841365e-02       1.788020416963e+04 
       3.241389237775e-02       1.778648327107e+04 
       3.256284647838e-02       1.769227942369e+04 
       3.271238645108e-02       1.759809179738e+04 
       3.286252857094e-02       1.750416190910e+04 
       3.301328967618e-02       1.741161170838e+04 
       3.316468719309e-02       1.731744630158e+04 
       3.331673916227e-02       1.722537681629e+04 
       3.346946426634e-02       1.713194595416e+04 
       3.362288185933e-02       1.703925117260e+04 
       3.377701199763e-02       1.694716503638e+04 
       3.393187547280e-02       1.685553482119e+04 
       3.408749384633e-02       1.676361269842e+04 
       3.424388948640e-02       1.667138088359e+04 
       3.440108560686e-02       1.657975537460e+04 
       3.455910630868e-02       1.648872817252e+04 
       3.471797662380e-02       1.639787896159e+04 
       3.487772256182e-02       1.630661964422e+04 
       3.503837115957e-02       1.621660206012e+04 
       3.519995053392e-02       1.612654428905e+04 
       3.536248993790e-02       1.603599069889e+04 
       3.552601982062e-02       1.594627907857e+04 
       3.569057189100e-02       1.585693321002e+04 
       3.585617918595e-02       1.576732924484e+04 
       3.602287614308e-02       1.567866652885e+04 
       3.619069867845e-02       1.558916169887e+04 
       3.635968426975e-02       1.550101734388e+04 
       3.652987204541e-02       1.541235737945e+04 
       3.670130288003e-02       1.532417689494e+04 
       3.687401949684e-02       1.523627682926e+04 
       3.704806657766e-02       1.514888897163e+04 
       3.722349088115e-02       1.506122038369e+04 
       3.740034136999e-02       1.497380948946e+04 
       3.757866934792e-02       1.488675940349e+04 
       3.775852860746e-02       1.480003132548e+04 
       3.793997558939e-02       1.471378198557e+04 
       3.812306955509e-02       1.462737228387e+04 
       3.830787277298e-02       1.454152679256e+04 
       3.849445072049e-02       1.445503144949e+04 
       3.868287230314e-02       1.436994625339e+04 
       3.887321009231e-02       1.428406127282e+04 
       3.906554058398e-02       1.419917269841e+04 
       3.925994448025e-02       1.411418353419e+04 
       3.945650699639e-02       1.402936678331e+04 
       3.965531819606e-02       1.394467279580e+04 
       3.985647335792e-02       1.386007076904e+04 
       4.006007337701e-02       1.377611071164e+04 
       4.026622520510e-02       1.369194618126e+04 
       4.047504233448e-02       1.360824543372e+04 
       4.068664533028e-02       1.352444430972e+04 
       4.090116241739e-02       1.344104094021e+04 
       4.111873012864e-02       1.335764558317e+04 
       4.133949402187e-02       1.327419627857e+04 
       4.156360947500e-02       1.319136500399e+04 
       4.179124256903e-02       1.310830618557e+04 
       4.202257107103e-02       1.302544523774e+04 
       4.225778553050e-02       1.294303199229e+04 
       4.249709050511e-02       1.286040185101e+04 
       4.274070593418e-02       1.277798614799e+04 
       4.298886868135e-02       1.269526760983e+04 
       4.324183427166e-02       1.261307620364e+04 
       4.349987885258e-02       1.253102271129e+04 
       4.376330141383e-02       1.244886171334e+04 
       4.403242630712e-02       1.236645556918e+04 
       4.430760611474e-02       1.228473132462e+04 
       4.458922492514e-02       1.220236971902e+04 
       4.487770208500e-02       1.212046235751e+04 
       4.517349651135e-02       1.203830696287e+04 
       4.547711166399e-02       1.195620947463e+04 
       4.578910130006e-02       1.187388345041e+04 
       4.611007615807e-02       1.179147048059e+04 
       4.644071175159e-02       1.170901300489e+04 
       4.678175749298e-02       1.162659340590e+04 
       4.713404741847e-02       1.154372634218e+04 
       4.749851284969e-02       1.146069385440e+04 
       4.787619740747e-02       1.137740313249e+04 
       4.826827489620e-02       1.129411034990e+04 
       4.867607070697e-02       1.121020112122e+04 
       4.910108755361e-02       1.112563000473e+04 
       4.954503656709e-02       1.104096429439e+04 
       5.000987504264e-02       1.095573623801e+04 
       5.049785247578e-02       1.086958900635e+04 
       5.101156695313e-02       1.078285305494e+04 
       5.155403449798e-02       1.069495679413e+04 
       5.212877461586e-02       1.060626593185e+04 
       5.273991603194e-02       1.051590642169e+04 
       5.339232739820e-02       1.042399771413e+04 
       5.409177841230e-02       1.033022459138e+04 
       5.484513695439e-02       1.023346197756e+04 
       5.566060671645e-02       1.013365736186e+04 
       5.654800577986e-02       1.002985142262e+04 
       5.751907667446e-02       9.920273463050e+03 
       5.858779726874e-02       9.803405412914e+03 
