# Matter power spectrum P(k) at redshift z=0
# for k=9.63987e-06 to 1.69342 h/Mpc,
# number of wavenumbers equal to 561
#    1:k (h/Mpc)              2:P (Mpc/h)^3        
       9.639867365113e-06       6.088680439018e+01 
       2.212986128692e-05       1.354148628829e+02 
       3.465992021673e-05       2.084810291553e+02 
       4.726173411811e-05       2.809232594287e+02 
       5.996747576320e-05       3.531883491487e+02 
       7.281007051844e-05       4.256520933381e+02 
       8.582347413346e-05       4.985127548359e+02 
       9.904296202805e-05       5.720551581561e+02 
       1.125054335993e-04       6.465164372792e+02 
       1.262497351016e-04       7.222285168966e+02 
       1.403170046686e-04       7.998087468796e+02 
       1.547510430170e-04       8.784940474560e+02 
       1.695987132704e-04       9.590518591961e+02 
       1.849103731055e-04       1.042082862010e+03 
       2.007403420012e-04       1.127201659905e+03 
       2.171474056625e-04       1.214807970061e+03 
       2.341953585935e-04       1.307352801001e+03 
       2.519535841480e-04       1.400661564543e+03 
       2.704976690227e-04       1.500794284169e+03 
       2.899100458314e-04       1.602840611877e+03 
       3.102806528647e-04       1.709350695165e+03 
       3.317075940867e-04       1.824231001874e+03 
       3.542977745547e-04       1.940214233370e+03 
       3.781674765197e-04       2.066824179213e+03 
       4.034428293295e-04       2.197951452410e+03 
       4.302601120549e-04       2.335027813745e+03 
       4.587658120408e-04       2.481709451659e+03 
       4.891163465938e-04       2.639113429286e+03 
       5.214773409473e-04       2.804546572759e+03 
       5.560223468458e-04       2.980077290076e+03 
       5.929308872364e-04       3.165667212163e+03 
       6.323857292933e-04       3.364168006195e+03 
       6.745693262492e-04       3.574240243251e+03 
       7.196594328050e-04       3.797409121653e+03 
       7.678239901261e-04       4.033192644103e+03 
       8.192154891339e-04       4.284746997240e+03 
       8.739651410613e-04       4.548698037477e+03 
       9.321772896580e-04       4.828908474182e+03 
       9.939245624714e-04       5.122303397486e+03 
       1.059244253755e-03       5.429752096392e+03 
       1.128136344596e-03       5.750480391892e+03 
       1.200563401891e-03       6.084438161923e+03 
       1.276452383548e-03       6.430153995635e+03 
       1.355698154979e-03       6.786793173778e+03 
       1.438168337130e-03       7.153402093857e+03 
       1.523708993264e-03       7.528608995661e+03 
       1.612150634274e-03       7.911485527254e+03 
       1.703314072316e-03       8.300444461764e+03 
       1.797015755963e-03       8.694519095385e+03 
       1.893072347193e-03       9.092329413293e+03 
       1.991304424679e-03       9.492897978714e+03 
       2.091539301120e-03       9.895108692599e+03 
       2.193613016404e-03       1.029800459236e+04 
       2.297371612954e-03       1.070079934494e+04 
       2.402671819309e-03       1.110252849757e+04 
       2.509381269397e-03       1.150271575882e+04 
       2.617378374869e-03       1.190055186219e+04 
       2.726551951594e-03       1.229549725897e+04 
       2.836800683163e-03       1.268696418788e+04 
       2.948032486418e-03       1.307479642666e+04 
       3.060163828143e-03       1.345837996973e+04 
       3.173119028637e-03       1.383762334875e+04 
       3.286829577116e-03       1.421197119012e+04 
       3.401233475480e-03       1.458131255106e+04 
       3.516274620667e-03       1.494542440867e+04 
       3.631902231162e-03       1.530411808202e+04 
       3.748070319938e-03       1.565736462323e+04 
       3.864737213845e-03       1.600499627524e+04 
       3.981865117956e-03       1.634687318433e+04 
       4.099419722453e-03       1.668294273027e+04 
       4.217369849112e-03       1.701315385485e+04 
       4.335687134199e-03       1.733748792180e+04 
       4.454345744559e-03       1.765591434901e+04 
       4.573322123723e-03       1.796845823907e+04 
       4.692594765050e-03       1.827501577479e+04 
       4.812144009104e-03       1.857561806963e+04 
       4.931951862702e-03       1.887034728603e+04 
       5.052001837269e-03       1.915935477311e+04 
       5.172278804416e-03       1.944222779810e+04 
       5.292768866814e-03       1.971552097364e+04 
       5.413459242673e-03       1.998747799351e+04 
       5.534338162314e-03       2.025071204012e+04 
       5.655394775485e-03       2.050080876793e+04 
       5.776619068221e-03       2.075709240796e+04 
       5.898001788195e-03       2.101882684429e+04 
       6.019534377618e-03       2.125745186631e+04 
       6.141208912865e-03       2.149565517371e+04 
       6.263018050079e-03       2.172516188486e+04 
       6.384954976120e-03       2.195880832469e+04 
       6.507013364271e-03       2.216990915998e+04 
       6.629187334207e-03       2.238810645668e+04 
       6.751471415751e-03       2.260634149229e+04 
       6.873860516055e-03       2.280753981611e+04 
       6.996349889811e-03       2.301581185778e+04 
       7.118935112214e-03       2.321061922385e+04 
       7.241612054372e-03       2.339565357248e+04 
       7.364376860926e-03       2.358411999562e+04 
       7.487225929663e-03       2.377184994355e+04 
       7.610155892915e-03       2.394982701756e+04 
       7.733163600576e-03       2.412113294266e+04 
       7.856246104574e-03       2.428572425558e+04 
       7.979400644669e-03       2.444390883549e+04 
       8.102624635441e-03       2.460498411131e+04 
       8.225915654358e-03       2.475518324046e+04 
       8.349271430832e-03       2.490758061967e+04 
       8.472689836157e-03       2.506008634055e+04 
       8.596168874267e-03       2.520023042150e+04 
       8.719706673222e-03       2.533443619082e+04 
       8.843301477379e-03       2.547284456264e+04 
       8.966951640156e-03       2.559752516349e+04 
       9.090655617379e-03       2.572622031310e+04 
       9.214411961119e-03       2.583909678364e+04 
       9.338219314012e-03       2.595807080622e+04 
       9.462076404002e-03       2.607705166458e+04 
       9.585982039470e-03       2.618602721420e+04 
       9.709935104739e-03       2.629102980210e+04 
       9.833934555894e-03       2.639035498313e+04 
       9.957979416917e-03       2.648880413718e+04 
       1.008206877610e-02       2.657377034747e+04 
       1.020620178271e-02       2.667261140748e+04 
       1.033037764390e-02       2.676360998030e+04 
       1.045459562183e-02       2.684461887480e+04 
       1.057885503102e-02       2.692740488511e+04 
       1.070315523584e-02       2.700248914258e+04 
       1.082749564822e-02       2.707377077159e+04 
       1.095187572548e-02       2.714375559268e+04 
       1.107629496836e-02       2.721801988778e+04 
       1.120075291917e-02       2.727755745321e+04 
       1.132524916000e-02       2.734004350707e+04 
       1.144978331117e-02       2.740204336165e+04 
       1.157435502972e-02       2.745724017023e+04 
       1.169896400796e-02       2.750485159917e+04 
       1.182360997227e-02       2.754985807374e+04 
       1.194829268179e-02       2.760227823484e+04 
       1.207301192736e-02       2.764584911632e+04 
       1.219776753047e-02       2.768397400754e+04 
       1.232255934224e-02       2.772511247709e+04 
       1.244738724260e-02       2.776077427502e+04 
       1.257225113936e-02       2.778974816255e+04 
       1.269715096752e-02       2.781977182096e+04 
       1.282208668850e-02       2.784478636572e+04 
       1.294705828948e-02       2.787328245260e+04 
       1.307206578281e-02       2.789137542554e+04 
       1.319710920544e-02       2.791474036761e+04 
       1.332218861837e-02       2.792810651427e+04 
       1.344730410622e-02       2.794460949116e+04 
       1.357245577674e-02       2.795857954880e+04 
       1.369764376048e-02       2.796237575383e+04 
       1.382286821037e-02       2.797384245630e+04 
       1.394812930142e-02       2.797631680546e+04 
       1.407342723043e-02       2.797924807040e+04 
       1.419876221570e-02       2.798192387385e+04 
       1.432413449685e-02       2.798075494222e+04 
       1.444954433457e-02       2.797837853730e+04 
       1.457499201048e-02       2.796846222668e+04 
       1.470047782695e-02       2.796411379863e+04 
       1.482600210698e-02       2.795178642377e+04 
       1.495156519416e-02       2.794258921537e+04 
       1.507716745250e-02       2.792811034647e+04 
       1.520280926646e-02       2.791041886206e+04 
       1.532849104086e-02       2.788754453541e+04 
       1.545421320093e-02       2.787307149820e+04 
       1.557997619225e-02       2.784806858302e+04 
       1.570578048085e-02       2.782426483452e+04 
       1.583162655322e-02       2.780135837181e+04 
       1.595751491640e-02       2.777050201313e+04 
       1.608344609806e-02       2.774185994536e+04 
       1.620942064661e-02       2.771449588646e+04 
       1.633543913131e-02       2.768391010286e+04 
       1.646150214246e-02       2.764737415774e+04 
       1.658761029149e-02       2.761175520045e+04 
       1.671376421121e-02       2.757524546778e+04 
       1.683996455595e-02       2.753709338974e+04 
       1.696621200179e-02       2.749407012956e+04 
       1.709250724682e-02       2.744974588978e+04 
       1.721885101131e-02       2.740811302184e+04 
       1.734524403804e-02       2.736488486407e+04 
       1.747168709257e-02       2.731959005027e+04 
       1.759818096347e-02       2.726869338859e+04 
       1.772472646273e-02       2.721790049865e+04 
       1.785132442599e-02       2.717046362199e+04 
       1.797797571296e-02       2.711977556857e+04 
       1.810468120773e-02       2.706569860343e+04 
       1.823144181917e-02       2.701071862705e+04 
       1.835825848131e-02       2.695436913800e+04 
       1.848513215378e-02       2.689767531792e+04 
       1.861206382218e-02       2.684060828410e+04 
       1.873905449860e-02       2.677900133455e+04 
       1.886610522203e-02       2.671904094699e+04 
       1.899321705885e-02       2.665780220862e+04 
       1.912039110333e-02       2.659274679843e+04 
       1.924762847817e-02       2.652945804314e+04 
       1.937493033500e-02       2.646335694422e+04 
       1.950229785497e-02       2.639916229185e+04 
       1.962973224930e-02       2.632805579588e+04 
       1.975723475988e-02       2.626073702135e+04 
       1.988480665990e-02       2.619130150996e+04 
       2.001244925446e-02       2.612371740110e+04 
       2.014016388126e-02       2.605219586361e+04 
       2.026795191123e-02       2.598041703229e+04 
       2.039581474929e-02       2.590700372449e+04 
       2.052375383505e-02       2.583310629276e+04 
       2.065177064353e-02       2.575747494989e+04 
       2.077986668596e-02       2.568195620555e+04 
       2.090804351059e-02       2.560614232627e+04 
       2.103630270348e-02       2.552767353306e+04 
       2.116464588935e-02       2.545021489337e+04 
       2.129307473248e-02       2.537199328409e+04 
       2.142159093761e-02       2.529164173017e+04 
       2.155019625082e-02       2.521168522310e+04 
       2.167889246056e-02       2.512916832119e+04 
       2.180768139859e-02       2.504934727527e+04 
       2.193656494102e-02       2.496470206108e+04 
       2.206554500938e-02       2.488178271449e+04 
       2.219462357167e-02       2.479944339745e+04 
       2.232380264349e-02       2.471498369357e+04 
       2.245308428923e-02       2.462809352451e+04 
       2.258247062320e-02       2.454421711059e+04 
       2.271196381094e-02       2.445908981379e+04 
       2.284156607040e-02       2.437134013052e+04 
       2.297127967332e-02       2.428549365120e+04 
       2.310110694654e-02       2.419733812917e+04 
       2.323105027341e-02       2.410931404379e+04 
       2.336111209523e-02       2.401945479512e+04 
       2.349129491272e-02       2.392921945832e+04 
       2.362160128756e-02       2.384152870332e+04 
       2.375203384399e-02       2.375107449287e+04 
       2.388259527041e-02       2.366179958906e+04 
       2.401328832109e-02       2.357076915162e+04 
       2.414411581789e-02       2.347973860393e+04 
       2.427508065210e-02       2.338647518095e+04 
       2.440618578624e-02       2.329618083065e+04 
       2.453743425605e-02       2.320187020915e+04 
       2.466882917240e-02       2.311144614572e+04 
       2.480037372340e-02       2.301835902770e+04 
       2.493207117651e-02       2.292525889926e+04 
       2.506392488069e-02       2.283119297574e+04 
       2.519593826873e-02       2.273790407895e+04 
       2.532811485955e-02       2.264205098039e+04 
       2.546045826064e-02       2.254945675831e+04 
       2.559297217060e-02       2.245552649540e+04 
       2.572566038168e-02       2.236047684430e+04 
       2.585852678252e-02       2.226474757667e+04 
       2.599157536092e-02       2.216868918790e+04 
       2.612481020671e-02       2.207484134934e+04 
       2.625823551477e-02       2.198000856908e+04 
       2.639185558811e-02       2.188427067693e+04 
       2.652567484107e-02       2.178823953117e+04 
       2.665969780265e-02       2.169275856548e+04 
       2.679392912000e-02       2.159491859430e+04 
       2.692837356192e-02       2.150014200212e+04 
       2.706303602267e-02       2.140306791583e+04 
       2.719792152571e-02       2.130693531246e+04 
       2.733303522781e-02       2.121161857846e+04 
       2.746838242312e-02       2.111495289606e+04 
       2.760396854751e-02       2.101867117601e+04 
       2.773979918307e-02       2.092172815596e+04 
       2.787588006273e-02       2.082486984631e+04 
       2.801221707510e-02       2.072829427936e+04 
       2.814881626952e-02       2.063161575722e+04 
       2.828568386129e-02       2.053540981086e+04 
       2.842282623709e-02       2.043825734246e+04 
       2.856024996065e-02       2.034168147760e+04 
       2.869796177868e-02       2.024568371705e+04 
       2.883596862697e-02       2.014812319572e+04 
       2.897427763678e-02       2.005204136910e+04 
       2.911289614156e-02       1.995597974855e+04 
       2.925183168384e-02       1.985879188056e+04 
       2.939109202251e-02       1.976272991281e+04 
       2.953068514035e-02       1.966677413481e+04 
       2.967061925196e-02       1.957025608334e+04 
       2.981090281193e-02       1.947365176001e+04 
       2.995154452351e-02       1.937809139258e+04 
       3.009255334754e-02       1.928213672954e+04 
       3.023393851184e-02       1.918619376096e+04 
       3.037570952106e-02       1.908983902503e+04 
       3.051787616690e-02       1.899481826029e+04 
       3.066044853888e-02       1.889926113854e+04 
       3.080343703557e-02       1.880314650501e+04 
       3.094685237638e-02       1.870847768665e+04 
       3.109070561386e-02       1.861252724127e+04 
       3.123500814666e-02       1.851827556197e+04 
       3.137977173307e-02       1.842220301268e+04 
       3.152500850524e-02       1.832856513307e+04 
       3.167073098412e-02       1.823309461126e+04 
       3.181695209513e-02       1.813896688517e+04 
       3.196368518458e-02       1.804561695416e+04 
       3.211094403705e-02       1.795067501633e+04 
       3.225874289353e-02       1.785732429333e+04 
       3.240709647056e-02       1.776323797527e+04 
       3.255601998044e-02       1.766953373870e+04 
       3.270552915239e-02       1.757660756772e+04 
       3.285564025494e-02       1.748343495779e+04 
       3.300637011953e-02       1.739108956308e+04 
       3.315773616536e-02       1.729771997423e+04 
       3.330975642564e-02       1.720525276231e+04 
       3.346244957533e-02       1.711366855296e+04 
       3.361583496047e-02       1.702110517053e+04 
       3.376993262912e-02       1.692958491454e+04 
       3.392476336416e-02       1.683803634476e+04 
       3.408034871802e-02       1.674666277090e+04 
       3.423671104942e-02       1.665472153483e+04 
       3.439387356238e-02       1.656449261998e+04 
       3.455186034754e-02       1.647375958703e+04 
       3.471069642607e-02       1.638318874886e+04 
       3.487040779632e-02       1.629276093158e+04 
       3.503102148334e-02       1.620222252735e+04 
       3.519256559167e-02       1.611273353249e+04 
       3.535506936142e-02       1.602277865906e+04 
       3.551856322815e-02       1.593340675787e+04 
       3.568307888661e-02       1.584406874239e+04 
       3.584864935879e-02       1.575590761446e+04 
       3.601530906666e-02       1.566701201593e+04 
       3.618309390985e-02       1.557813630936e+04 
       3.635204134876e-02       1.549041020196e+04 
       3.652219049364e-02       1.540252536115e+04 
       3.669358219994e-02       1.531474910386e+04 
       3.686625917072e-02       1.522708373837e+04 
       3.704026606650e-02       1.513989772016e+04 
       3.721564962350e-02       1.505264906434e+04 
       3.739245878068e-02       1.496588561604e+04 
       3.757074481670e-02       1.487875247953e+04 
       3.775056149755e-02       1.479294421675e+04 
       3.793196523591e-02       1.470658584566e+04 
       3.811501526339e-02       1.462071671186e+04 
       3.829977381681e-02       1.453482100064e+04 
       3.848630634006e-02       1.444950371885e+04 
       3.867468170298e-02       1.436403458302e+04 
       3.886497243901e-02       1.427874471737e+04 
       3.905725500368e-02       1.419408526661e+04 
       3.925161005599e-02       1.410930952028e+04 
       3.944812276516e-02       1.402476164207e+04 
       3.964688314567e-02       1.394041741368e+04 
       3.984798642349e-02       1.385634236185e+04 
       4.005153343723e-02       1.377227902164e+04 
       4.025763107813e-02       1.368842883843e+04 
       4.046639277339e-02       1.360499100407e+04 
       4.067793901815e-02       1.352142894084e+04 
       4.089239796190e-02       1.343812631670e+04 
       4.110990605605e-02       1.335494708843e+04 
       4.133060877047e-02       1.327185027424e+04 
       4.155466138784e-02       1.318920362490e+04 
       4.178222988591e-02       1.310598592913e+04 
       4.201349191953e-02       1.302375785756e+04 
       4.224863791612e-02       1.294089842718e+04 
       4.248787230022e-02       1.285870323874e+04 
       4.273141486570e-02       1.277637284226e+04 
       4.297950231697e-02       1.269418467788e+04 
       4.323239000437e-02       1.261202801640e+04 
       4.349035388329e-02       1.252969229657e+04 
       4.375369273172e-02       1.244782329274e+04 
       4.402273066744e-02       1.236576843899e+04 
       4.429782001367e-02       1.228338045221e+04 
       4.457934457107e-02       1.220140627231e+04 
       4.486772336585e-02       1.211936740209e+04 
       4.516341495705e-02       1.203719171741e+04 
       4.546692240344e-02       1.195527500756e+04 
       4.577879901135e-02       1.187274896175e+04 
       4.609965501095e-02       1.179051152434e+04 
       4.643016534051e-02       1.170797843475e+04 
       4.677107875895e-02       1.162529415869e+04 
       4.712322855748e-02       1.154233044643e+04 
       4.748754520479e-02       1.145914289423e+04 
       4.786507134121e-02       1.137581865125e+04 
       4.825697963898e-02       1.129203426962e+04 
       4.866459417595e-02       1.120788451906e+04 
       4.908941613553e-02       1.112316416116e+04 
       4.953315485626e-02       1.103823242780e+04 
       4.999776552356e-02       1.095233929404e+04 
       5.048549513678e-02       1.086596464231e+04 
       5.099893881399e-02       1.077851626589e+04 
       5.154110903008e-02       1.069044934633e+04 
       5.211552102832e-02       1.060104320376e+04 
       5.272629839130e-02       1.051008548741e+04 
       5.337830354326e-02       1.041751169979e+04 
       5.407729862152e-02       1.032292415144e+04 
       5.483014232419e-02       1.022548522653e+04 
       5.564502722234e-02       1.012471232536e+04 
       5.653175803376e-02       1.001991191038e+04 
       5.750206148756e-02       9.909234699850e+03 
       5.856989732770e-02       9.791365755315e+03 
