# Matter power spectrum P(k) at redshift z=0
# for k=9.63987e-06 to 1.694 h/Mpc,
# number of wavenumbers equal to 561
#    1:k (h/Mpc)              2:P (Mpc/h)^3        
       9.639867365113e-06       6.086412669869e+01 
       2.213208832943e-05       1.353850922141e+02 
       3.466439138989e-05       2.084617447701e+02 
       4.726848350175e-05       2.809379999322e+02 
       5.997655482274e-05       3.532784777734e+02 
       7.282154874057e-05       4.258242865747e+02 
       8.583743991295e-05       4.988645001500e+02 
       9.905952381951e-05       5.726596882543e+02 
       1.125247213520e-04       6.474627123966e+02 
       1.262719020002e-04       7.235230766603e+02 
       1.403422292060e-04       8.009106023616e+02 
       1.547795314314e-04       8.802344876214e+02 
       1.696307023802e-04       9.583240796491e+02 
       1.849461335826e-04       1.042275005625e+03 
       2.007801821211e-04       1.127102856656e+03 
       2.171916755746e-04       1.216109450669e+03 
       2.342444551499e-04       1.304673376962e+03 
       2.520079563261e-04       1.398825731838e+03 
       2.705578239644e-04       1.498354724680e+03 
       2.899765555042e-04       1.602508065119e+03 
       3.103541613220e-04       1.711680539615e+03 
       3.317888252627e-04       1.826371295567e+03 
       3.543875404711e-04       1.938434707585e+03 
       3.782666857020e-04       2.062444938095e+03 
       4.035524951280e-04       2.195798801770e+03 
       4.303813604355e-04       2.333525731840e+03 
       4.588998882546e-04       2.481080285017e+03 
       4.892646199631e-04       2.633309078096e+03 
       5.216413068229e-04       2.798664558099e+03 
       5.562036246349e-04       2.974377939089e+03 
       5.931312132966e-04       3.158505005058e+03 
       6.326069435016e-04       3.355875971299e+03 
       6.748133512291e-04       3.566076714098e+03 
       7.199282452036e-04       3.789674216297e+03 
       7.681195839871e-04       4.024825948869e+03 
       8.195398323138e-04       4.274531951029e+03 
       8.743201266833e-04       4.538625961720e+03 
       9.325646856283e-04       4.818454610215e+03 
       9.943459628711e-04       5.109652128860e+03 
       1.059701036234e-03       5.416347591560e+03 
       1.128629637576e-03       5.736847172845e+03 
       1.201094064425e-03       6.069392490936e+03 
       1.277020999212e-03       6.414199732048e+03 
       1.356305039534e-03       6.770066891270e+03 
       1.438813558168e-03       7.135780982807e+03 
       1.524392398954e-03       7.510170004063e+03 
       1.612871887824e-03       7.891907501349e+03 
       1.704072688785e-03       8.279829128496e+03 
       1.797811138561e-03       8.672665927630e+03 
       1.893903820883e-03       9.069459859392e+03 
       1.992171265723e-03       9.468798816189e+03 
       2.092440761880e-03       9.870215038574e+03 
       2.194548345288e-03       1.027191336565e+04 
       2.298340069793e-03       1.067374454733e+04 
       2.403672686672e-03       1.107426009128e+04 
       2.510413860471e-03       1.147306387100e+04 
       2.618442038523e-03       1.186969020986e+04 
       2.727646075245e-03       1.226356893776e+04 
       2.837924693947e-03       1.265422749996e+04 
       2.949185851127e-03       1.304086813299e+04 
       3.061346052276e-03       1.342327799979e+04 
       3.174329654849e-03       1.380139966646e+04 
       3.288068183290e-03       1.417456705516e+04 
       3.402499672583e-03       1.454286627617e+04 
       3.517568050509e-03       1.490604046239e+04 
       3.633222564145e-03       1.526393703712e+04 
       3.749417252859e-03       1.561601016824e+04 
       3.866110467785e-03       1.596272389812e+04 
       3.983264436282e-03       1.630358580933e+04 
       4.100844868949e-03       1.663877495112e+04 
       4.218820606243e-03       1.696818471411e+04 
       4.337163301513e-03       1.729168925317e+04 
       4.455847137208e-03       1.760935423445e+04 
       4.574848571117e-03       1.792099922272e+04 
       4.694146109629e-03       1.822680231014e+04 
       4.813720105214e-03       1.852671448257e+04 
       4.933552575574e-03       1.882083968258e+04 
       5.053627042095e-03       1.910923094535e+04 
       5.173928385504e-03       1.940610491411e+04 
       5.294442716824e-03       1.969720072519e+04 
       5.415157261923e-03       1.996359551832e+04 
       5.536060258150e-03       2.022643667958e+04 
       5.657140861709e-03       2.046923870404e+04 
       5.778389064570e-03       2.072853919112e+04 
       5.899795619872e-03       2.096762362292e+04 
       6.021351974859e-03       2.121703152309e+04 
       6.143050210550e-03       2.145577600467e+04 
       6.264882987374e-03       2.171317743651e+04 
       6.386843496155e-03       2.190625748762e+04 
       6.508925413845e-03       2.213536936987e+04 
       6.631122863513e-03       2.236161316136e+04 
       6.753430378137e-03       2.257425457470e+04 
       6.875842867791e-03       2.278893431416e+04 
       6.998355589888e-03       2.296261819985e+04 
       7.120964122152e-03       2.317191640330e+04 
       7.243664338046e-03       2.336702746905e+04 
       7.366452384413e-03       2.354266766833e+04 
       7.489324661088e-03       2.374710931826e+04 
       7.612277802323e-03       2.392592234953e+04 
       7.735308659803e-03       2.409292944406e+04 
       7.858414287138e-03       2.423752323833e+04 
       7.981591925664e-03       2.440500626581e+04 
       8.104838991440e-03       2.456262979929e+04 
       8.228153063323e-03       2.474019204297e+04 
       8.351531872033e-03       2.489215745585e+04 
       8.474973290094e-03       2.501330493567e+04 
       8.598475322602e-03       2.517664034252e+04 
       8.722036098713e-03       2.528871401876e+04 
       8.845653863818e-03       2.541976047419e+04 
       8.969326972315e-03       2.554838174132e+04 
       9.093053880957e-03       2.567690286648e+04 
       9.216833142695e-03       2.579602068741e+04 
       9.340663401000e-03       2.592418287616e+04 
       9.464543384606e-03       2.602372629453e+04 
       9.588471902651e-03       2.614860638913e+04 
       9.712447840175e-03       2.624060656600e+04 
       9.836470153948e-03       2.635309015630e+04 
       9.960537868606e-03       2.644046722895e+04 
       1.008465007306e-02       2.655087573620e+04 
       1.020880591719e-02       2.663625836934e+04 
       1.033300460870e-02       2.670998901282e+04 
       1.045724541033e-02       2.680893911985e+04 
       1.058152763710e-02       2.689998694826e+04 
       1.070585065389e-02       2.695761251270e+04 
       1.083021387312e-02       2.703224793649e+04 
       1.095461675259e-02       2.710823916349e+04 
       1.107905879350e-02       2.717755882081e+04 
       1.120353953857e-02       2.724127348049e+04 
       1.132805857034e-02       2.731023796780e+04 
       1.145261550953e-02       2.736210893152e+04 
       1.157721001358e-02       2.740510725013e+04 
       1.170184177519e-02       2.745776454743e+04 
       1.182651052111e-02       2.750480590916e+04 
       1.195121601086e-02       2.756562583753e+04 
       1.207595803564e-02       2.759549026301e+04 
       1.220073641726e-02       2.763866657588e+04 
       1.232555100721e-02       2.767756490083e+04 
       1.245040168573e-02       2.770847681744e+04 
       1.257528836099e-02       2.775303283414e+04 
       1.270021096828e-02       2.777882946790e+04 
       1.282516946935e-02       2.779978565043e+04 
       1.295016385169e-02       2.782700225611e+04 
       1.307519412796e-02       2.784366126677e+04 
       1.320026033539e-02       2.786912801395e+04 
       1.332536253531e-02       2.789345849125e+04 
       1.345050081260e-02       2.790423608365e+04 
       1.357567527533e-02       2.790815193356e+04 
       1.370088605432e-02       2.793451941177e+04 
       1.382613330280e-02       2.792413072174e+04 
       1.395141719605e-02       2.792669524018e+04 
       1.407673793115e-02       2.793354271420e+04 
       1.420209572671e-02       2.794470169981e+04 
       1.432749082260e-02       2.793253345669e+04 
       1.445292347980e-02       2.792741191178e+04 
       1.457839398021e-02       2.792115573604e+04 
       1.470390262647e-02       2.792145087487e+04 
       1.482944974188e-02       2.790225406726e+04 
       1.495503567028e-02       2.788801521203e+04 
       1.508066077598e-02       2.787582184728e+04 
       1.520632544371e-02       2.786771689959e+04 
       1.533203007859e-02       2.785280971419e+04 
       1.545777510610e-02       2.781945768563e+04 
       1.558356097213e-02       2.780524314296e+04 
       1.570938814298e-02       2.778552203182e+04 
       1.583525710545e-02       2.775513371432e+04 
       1.596116836685e-02       2.772012144255e+04 
       1.608712245515e-02       2.769959357285e+04 
       1.621311991904e-02       2.767350475099e+04 
       1.633916132810e-02       2.763964148525e+04 
       1.646524727291e-02       2.759109090542e+04 
       1.659137836523e-02       2.756104728470e+04 
       1.671755523815e-02       2.751849919602e+04 
       1.684377854632e-02       2.748095880609e+04 
       1.697004896615e-02       2.743711217188e+04 
       1.709636719601e-02       2.740097069701e+04 
       1.722273395653e-02       2.735947132021e+04 
       1.734914999081e-02       2.730901698641e+04 
       1.747561606473e-02       2.726133379935e+04 
       1.760213296720e-02       2.721969194350e+04 
       1.772870151056e-02       2.716706368110e+04 
       1.785532253079e-02       2.711102721435e+04 
       1.798199688794e-02       2.705927021171e+04 
       1.810872546648e-02       2.700135517697e+04 
       1.823550917563e-02       2.694657177439e+04 
       1.836234894980e-02       2.689164563104e+04 
       1.848924574897e-02       2.683756831218e+04 
       1.861620055916e-02       2.677339118869e+04 
       1.874321439283e-02       2.672187747452e+04 
       1.887028828936e-02       2.666292245291e+04 
       1.899742331554e-02       2.659216709504e+04 
       1.912462056606e-02       2.652606407368e+04 
       1.925188116403e-02       2.646230585494e+04 
       1.937920626151e-02       2.639515747143e+04 
       1.950659704007e-02       2.632797797782e+04 
       1.963405471139e-02       2.626132297890e+04 
       1.976158051781e-02       2.619713112365e+04 
       1.988917573297e-02       2.612213508154e+04 
       2.001684166245e-02       2.605119218572e+04 
       2.014457964442e-02       2.597831158381e+04 
       2.027239105031e-02       2.590438247960e+04 
       2.040027728555e-02       2.583143221197e+04 
       2.052823979022e-02       2.576110523089e+04 
       2.065628003990e-02       2.568157963347e+04 
       2.078439954634e-02       2.560359415704e+04 
       2.091259985832e-02       2.552870154212e+04 
       2.104088256246e-02       2.545033484451e+04 
       2.116924928406e-02       2.536884295343e+04 
       2.129770168797e-02       2.529326734628e+04 
       2.142624147951e-02       2.520831691960e+04 
       2.155487040539e-02       2.513174158609e+04 
       2.168359025465e-02       2.504635404997e+04 
       2.181240285970e-02       2.496612993783e+04 
       2.194131009730e-02       2.488141830540e+04 
       2.207031388962e-02       2.480093064105e+04 
       2.219941620535e-02       2.471057329190e+04 
       2.232861906078e-02       2.462700296614e+04 
       2.245792452100e-02       2.454089952808e+04 
       2.258733470106e-02       2.445387999505e+04 
       2.271685176722e-02       2.436665920545e+04 
       2.284647793821e-02       2.428138721678e+04 
       2.297621548653e-02       2.419219732388e+04 
       2.310606673981e-02       2.410365115117e+04 
       2.323603408223e-02       2.401585831022e+04 
       2.336611995591e-02       2.392257773975e+04 
       2.349632686244e-02       2.383520492515e+04 
       2.362665736436e-02       2.374759410562e+04 
       2.375711408680e-02       2.365590596772e+04 
       2.388769971908e-02       2.355909595108e+04 
       2.401841701642e-02       2.347058353250e+04 
       2.414926880164e-02       2.337778827002e+04 
       2.428025796700e-02       2.328340795134e+04 
       2.441138747606e-02       2.319463489280e+04 
       2.454266036557e-02       2.310132927753e+04 
       2.467407974749e-02       2.300482656049e+04 
       2.480564881101e-02       2.290909722463e+04 
       2.493737082469e-02       2.281708211641e+04 
       2.506924913867e-02       2.271995086242e+04 
       2.520128718689e-02       2.262683642801e+04 
       2.533348848950e-02       2.253106302271e+04 
       2.546585665522e-02       2.243960126945e+04 
       2.559839538392e-02       2.234279669387e+04 
       2.573110846916e-02       2.224430088661e+04 
       2.586399980091e-02       2.214991540850e+04 
       2.599707336837e-02       2.205188846879e+04 
       2.613033326277e-02       2.195744591092e+04 
       2.626378368044e-02       2.185871770636e+04 
       2.639742892589e-02       2.176178330428e+04 
       2.653127341499e-02       2.166899113320e+04 
       2.666532167832e-02       2.157117057923e+04 
       2.679957836464e-02       2.147156302565e+04 
       2.693404824444e-02       2.137460601385e+04 
       2.706873621365e-02       2.127811502422e+04 
       2.720364729753e-02       2.117968080174e+04 
       2.733878665463e-02       2.108212212770e+04 
       2.747415958099e-02       2.098452979109e+04 
       2.760977151438e-02       2.088659060862e+04 
       2.774562803887e-02       2.079001358041e+04 
       2.788173488940e-02       2.069104370278e+04 
       2.801809795670e-02       2.059661144307e+04 
       2.815472329224e-02       2.049616805917e+04 
       2.829161711354e-02       2.039807969103e+04 
       2.842878580957e-02       2.030132674719e+04 
       2.856623594641e-02       2.020475198813e+04 
       2.870397427319e-02       2.010788199590e+04 
       2.884200772819e-02       2.000717962026e+04 
       2.898034344527e-02       1.991010126150e+04 
       2.911898876050e-02       1.981284571904e+04 
       2.925795121918e-02       1.971529993864e+04 
       2.939723858301e-02       1.961724444705e+04 
       2.953685883770e-02       1.952048463928e+04 
       2.967682020085e-02       1.942470261695e+04 
       2.981713113016e-02       1.932700930860e+04 
       2.995780033208e-02       1.923034007158e+04 
       3.009883677078e-02       1.913137303215e+04 
       3.024024967750e-02       1.903481764423e+04 
       3.038204856042e-02       1.893843911630e+04 
       3.052424321491e-02       1.884108268712e+04 
       3.066684373428e-02       1.874479419858e+04 
       3.080986052100e-02       1.864999581664e+04 
       3.095330429854e-02       1.855400849753e+04 
       3.109718612364e-02       1.845636324102e+04 
       3.124151739928e-02       1.835925585359e+04 
       3.138630988826e-02       1.826332605003e+04 
       3.153157572738e-02       1.816764335163e+04 
       3.167732744242e-02       1.807215944001e+04 
       3.182357796378e-02       1.797663924348e+04 
       3.197034064299e-02       1.788313537459e+04 
       3.211762926999e-02       1.778640433750e+04 
       3.226545809135e-02       1.769146212336e+04 
       3.241384182943e-02       1.759914614600e+04 
       3.256279570252e-02       1.750429257749e+04 
       3.271233544612e-02       1.740978568434e+04 
       3.286247733527e-02       1.731382990535e+04 
       3.301323820814e-02       1.722029233187e+04 
       3.316463549097e-02       1.712772330939e+04 
       3.331668722428e-02       1.703296628694e+04 
       3.346941209068e-02       1.693974725478e+04 
       3.362282944410e-02       1.684674200114e+04 
       3.377695934088e-02       1.675560086526e+04 
       3.393182257253e-02       1.666245125160e+04 
       3.408744070046e-02       1.656890790183e+04 
       3.424383609277e-02       1.647767968059e+04 
       3.440103196326e-02       1.638567080101e+04 
       3.455905241280e-02       1.629301799498e+04 
       3.471792247326e-02       1.620191696328e+04 
       3.487766815415e-02       1.611135652439e+04 
       3.503831649223e-02       1.602108720762e+04 
       3.519989560427e-02       1.592859313291e+04 
       3.536243474320e-02       1.583960984143e+04 
       3.552596435802e-02       1.574809007435e+04 
       3.569051615756e-02       1.565809575053e+04 
       3.585612317862e-02       1.556930247881e+04 
       3.602281985868e-02       1.547978235956e+04 
       3.619064211369e-02       1.538916433669e+04 
       3.635962742121e-02       1.530040278631e+04 
       3.652981490952e-02       1.521139543186e+04 
       3.670124545309e-02       1.512263277260e+04 
       3.687396177501e-02       1.503515821481e+04 
       3.704800855692e-02       1.494533223355e+04 
       3.722343255733e-02       1.485756260609e+04 
       3.740028273874e-02       1.476972701827e+04 
       3.757861040470e-02       1.468243661921e+04 
       3.775846934753e-02       1.459499541325e+04 
       3.793991600780e-02       1.450823640008e+04 
       3.812300964667e-02       1.442247872901e+04 
       3.830781253233e-02       1.433446802601e+04 
       3.849439014197e-02       1.424776661600e+04 
       3.868281138082e-02       1.416193503392e+04 
       3.887314882000e-02       1.407610749663e+04 
       3.906547895518e-02       1.398990347388e+04 
       3.925988248812e-02       1.390438904415e+04 
       3.945644463378e-02       1.381930420280e+04 
       3.965525545545e-02       1.373419536351e+04 
       3.985641023137e-02       1.364902863515e+04 
       4.006000985619e-02       1.356418791290e+04 
       4.026616128122e-02       1.347952140159e+04 
       4.047497799825e-02       1.339412307004e+04 
       4.068658057191e-02       1.331057033403e+04 
       4.090109722654e-02       1.322581987134e+04 
       4.111866449433e-02       1.314145307569e+04 
       4.133942793248e-02       1.305785847508e+04 
       4.156354291821e-02       1.297375555280e+04 
       4.179117553174e-02       1.289004189918e+04 
       4.202250353932e-02       1.280646897795e+04 
       4.225771748952e-02       1.272347914895e+04 
       4.249702193904e-02       1.263944693410e+04 
       4.274063682611e-02       1.255610027359e+04 
       4.298879901319e-02       1.247361495005e+04 
       4.324176402401e-02       1.238948715491e+04 
       4.349980800462e-02       1.230669415546e+04 
       4.376322994316e-02       1.222311846954e+04 
       4.403235418960e-02       1.214010902774e+04 
       4.430753332430e-02       1.205682279426e+04 
       4.458915143357e-02       1.197354708976e+04 
       4.487762786172e-02       1.189056070716e+04 
       4.517342152309e-02       1.180691330873e+04 
       4.547703587452e-02       1.172361178902e+04 
       4.578902466979e-02       1.163996071432e+04 
       4.610999864362e-02       1.155646777582e+04 
       4.644063330530e-02       1.147250273329e+04 
       4.678167806233e-02       1.138817541825e+04 
       4.713396694540e-02       1.130359141787e+04 
       4.749843126979e-02       1.121905905584e+04 
       4.787611464905e-02       1.113380834905e+04 
       4.826819087912e-02       1.104840394913e+04 
       4.867598534132e-02       1.096264849121e+04 
       4.910100073811e-02       1.087586246990e+04 
       4.954494818711e-02       1.078882307071e+04 
       5.000978496786e-02       1.070098097875e+04 
       5.049776055729e-02       1.061228228610e+04 
       5.101147301994e-02       1.052314682401e+04 
       5.155393835268e-02       1.043206096960e+04 
       5.212867602933e-02       1.034009389908e+04 
       5.273981473680e-02       1.024566446558e+04 
       5.339222308070e-02       1.014990677805e+04 
       5.409167070244e-02       1.005163713148e+04 
       5.484502541383e-02       9.950467962572e+03 
       5.566049082408e-02       9.845584628874e+03 
       5.654788491514e-02       9.736016760012e+03 
       5.751895009926e-02       9.620073445054e+03 
       5.858766411006e-02       9.496577847651e+03 
