# Matter power spectrum P(k) at redshift z=0
# for k=9.63987e-06 to 1.69389 h/Mpc,
# number of wavenumbers equal to 561
#    1:k (h/Mpc)              2:P (Mpc/h)^3        
       9.639867365113e-06       6.087790472098e+01 
       2.213165749364e-05       1.354060614212e+02 
       3.466352641216e-05       2.084732320830e+02 
       4.726717778827e-05       2.809137965481e+02 
       5.997479841587e-05       3.531826557475e+02 
       7.281932819581e-05       4.256107825972e+02 
       8.583473812734e-05       4.984749245369e+02 
       9.905631980872e-05       5.722119918784e+02 
       1.125209899727e-04       6.467108639054e+02 
       1.262676136133e-04       7.223687386455e+02 
       1.403373492753e-04       7.994213043391e+02 
       1.547740200521e-04       8.781098248740e+02 
       1.696245137305e-04       9.585189473663e+02 
       1.849392152899e-04       1.042628849647e+03 
       2.007724745365e-04       1.127864241301e+03 
       2.171831109465e-04       1.214976139661e+03 
       2.342349566895e-04       1.305946828190e+03 
       2.519974371581e-04       1.402327881887e+03 
       2.705461859582e-04       1.500484567141e+03 
       2.899636879848e-04       1.602765623970e+03 
       3.103399396655e-04       1.709595737207e+03 
       3.317731093871e-04       1.821599919134e+03 
       3.543701732489e-04       1.941422260538e+03 
       3.782474913313e-04       2.064956907773e+03 
       4.035312775228e-04       2.198929366827e+03 
       4.303579017181e-04       2.337003514814e+03 
       4.588739474658e-04       2.484166393864e+03 
       4.892359321370e-04       2.639771811668e+03 
       5.216095826090e-04       2.805555624012e+03 
       5.561685506815e-04       2.979174742526e+03 
       5.930924536281e-04       3.166721610397e+03 
       6.325641421197e-04       3.364963247209e+03 
       6.747661361358e-04       3.575153668327e+03 
       7.198762339618e-04       3.798044863052e+03 
       7.680623908114e-04       4.034741034981e+03 
       8.194770765065e-04       4.285291304911e+03 
       8.742514420293e-04       4.550548248117e+03 
       9.324897301638e-04       4.830276207188e+03 
       9.942644282872e-04       5.123718725088e+03 
       1.059612656117e-03       5.431442167663e+03 
       1.128534193746e-03       5.752204179518e+03 
       1.200991390829e-03       6.086309506072e+03 
       1.276910983095e-03       6.432147017250e+03 
       1.356187619953e-03       6.788883737857e+03 
       1.438688722181e-03       7.155472524081e+03 
       1.524260176055e-03       7.530741090149e+03 
       1.612732343271e-03       7.913747933585e+03 
       1.703925916481e-03       8.302772345347e+03 
       1.797657254026e-03       8.696931724313e+03 
       1.893742954756e-03       9.094776774414e+03 
       1.992003558050e-03       9.495357822718e+03 
       2.092266357314e-03       9.897550443198e+03 
       2.194367389236e-03       1.030035881248e+04 
       2.298152705444e-03       1.070316985740e+04 
       2.403479052807e-03       1.110487022282e+04 
       2.510214089943e-03       1.150510647365e+04 
       2.618236257280e-03       1.190288616958e+04 
       2.727434401772e-03       1.229777580261e+04 
       2.837707239046e-03       1.268920209970e+04 
       2.948962717928e-03       1.307694286792e+04 
       3.061117336419e-03       1.346043808222e+04 
       3.174095444787e-03       1.383956740120e+04 
       3.287828560662e-03       1.421385978091e+04 
       3.402254712628e-03       1.458311260322e+04 
       3.517317822501e-03       1.494713209200e+04 
       3.632967131829e-03       1.530575280366e+04 
       3.749156674872e-03       1.565886615060e+04 
       3.865844798069e-03       1.600632406557e+04 
       3.982993724468e-03       1.634810523181e+04 
       4.100569160721e-03       1.668408562311e+04 
       4.218539943670e-03       1.701421473695e+04 
       4.336877723361e-03       1.733844536824e+04 
       4.455556679226e-03       1.765672918218e+04 
       4.574553266295e-03       1.796915982075e+04 
       4.693845988438e-03       1.827561807667e+04 
       4.813415195823e-03       1.857612411327e+04 
       4.933242904046e-03       1.887075480149e+04 
       5.053312632566e-03       1.915968957160e+04 
       5.173609260349e-03       1.944304477778e+04 
       5.294118896801e-03       1.971487940690e+04 
       5.414828766309e-03       1.998649523728e+04 
       5.535727104865e-03       2.025492667291e+04 
       5.656803067422e-03       2.050784138342e+04 
       5.778046644804e-03       2.076045984332e+04 
       5.899448589091e-03       2.101680754376e+04 
       6.021000346556e-03       2.124718496683e+04 
       6.142693997318e-03       2.149665225997e+04 
       6.264522200978e-03       2.172328343939e+04 
       6.386478147593e-03       2.195099792511e+04 
       6.508555513406e-03       2.217326987438e+04 
       6.630748420830e-03       2.239789643975e+04 
       6.753051402231e-03       2.260723583878e+04 
       6.875459367119e-03       2.281482896123e+04 
       6.997967572381e-03       2.301568987153e+04 
       7.120571595252e-03       2.321259779094e+04 
       7.243267308739e-03       2.339929175532e+04 
       7.366050859259e-03       2.358925292967e+04 
       7.488918646253e-03       2.376161681611e+04 
       7.611867303598e-03       2.395062925274e+04 
       7.734893682636e-03       2.410892269958e+04 
       7.857994836650e-03       2.428300162441e+04 
       7.981168006672e-03       2.444292159692e+04 
       8.104410608474e-03       2.461291318606e+04 
       8.227720220645e-03       2.476142354270e+04 
       8.351094573652e-03       2.491566287022e+04 
       8.474531539781e-03       2.504972356082e+04 
       8.598029123904e-03       2.519923780850e+04 
       8.721585454964e-03       2.533408414809e+04 
       8.845198778152e-03       2.546009828685e+04 
       8.968867447678e-03       2.560096653503e+04 
       9.092589920114e-03       2.572507099067e+04 
       9.216364748241e-03       2.584051984773e+04 
       9.340190575369e-03       2.596449458796e+04 
       9.464066130079e-03       2.607692127157e+04 
       9.587990221363e-03       2.618374865490e+04 
       9.711961734122e-03       2.628171211192e+04 
       9.835979624994e-03       2.639583314373e+04 
       9.960042918488e-03       2.648574888279e+04 
       1.008415070340e-02       2.658517065982e+04 
       1.020830212948e-02       2.667480855594e+04 
       1.033249640433e-02       2.676007189399e+04 
       1.045673279058e-02       2.684543502341e+04 
       1.058101060316e-02       2.693303057202e+04 
       1.070532920685e-02       2.701057256610e+04 
       1.082968801396e-02       2.707755045053e+04 
       1.095408648221e-02       2.715379255375e+04 
       1.107852411271e-02       2.721111615831e+04 
       1.120300044809e-02       2.728145001127e+04 
       1.132751507082e-02       2.734193011119e+04 
       1.145206760154e-02       2.740572710975e+04 
       1.157665769759e-02       2.746046014069e+04 
       1.170128505163e-02       2.751328408672e+04 
       1.182594939031e-02       2.755479533881e+04 
       1.195065047309e-02       2.760801974264e+04 
       1.207538809109e-02       2.764854428491e+04 
       1.220016206607e-02       2.769467374918e+04 
       1.232497224944e-02       2.773305451590e+04 
       1.244981852139e-02       2.776025474530e+04 
       1.257470079001e-02       2.779456570669e+04 
       1.269961899054e-02       2.782563668030e+04 
       1.282457308466e-02       2.785769715262e+04 
       1.294956305981e-02       2.787366617185e+04 
       1.307458892858e-02       2.789869259570e+04 
       1.319965072816e-02       2.791493771445e+04 
       1.332474851979e-02       2.794010821155e+04 
       1.344988238832e-02       2.795079944292e+04 
       1.357505244176e-02       2.796526978264e+04 
       1.370025881087e-02       2.797214554742e+04 
       1.382550164882e-02       2.798072952112e+04 
       1.395078113084e-02       2.798246718225e+04 
       1.407609745397e-02       2.799056694558e+04 
       1.420145083673e-02       2.799207375052e+04 
       1.432684151897e-02       2.799166324591e+04 
       1.445226976160e-02       2.798733955118e+04 
       1.457773584647e-02       2.798139224351e+04 
       1.470324007616e-02       2.797166445943e+04 
       1.482878277392e-02       2.796466328040e+04 
       1.495436428355e-02       2.795228707923e+04 
       1.507998496929e-02       2.793774562302e+04 
       1.520564521581e-02       2.792196031348e+04 
       1.533134542818e-02       2.790534638802e+04 
       1.545708603184e-02       2.788192105447e+04 
       1.558286747261e-02       2.786074318042e+04 
       1.570869021675e-02       2.783576424358e+04 
       1.583455475099e-02       2.781381971697e+04 
       1.596046158258e-02       2.778467851377e+04 
       1.608641123944e-02       2.775527961943e+04 
       1.621240427022e-02       2.772469142461e+04 
       1.633844124442e-02       2.769563127894e+04 
       1.646452275256e-02       2.766035369189e+04 
       1.659064940636e-02       2.762640242601e+04 
       1.671682183883e-02       2.758411153403e+04 
       1.684304070458e-02       2.754592812655e+04 
       1.696930667995e-02       2.750926532885e+04 
       1.709562046325e-02       2.746508395644e+04 
       1.722198277504e-02       2.742062373400e+04 
       1.734839435836e-02       2.737866877383e+04 
       1.747485597903e-02       2.733336067498e+04 
       1.760136842590e-02       2.728358405592e+04 
       1.772793251122e-02       2.723462101652e+04 
       1.785454907093e-02       2.718463902525e+04 
       1.798121896502e-02       2.713220784540e+04 
       1.810794307785e-02       2.708051797861e+04 
       1.823472231860e-02       2.702431367395e+04 
       1.836155762159e-02       2.696980237574e+04 
       1.848844994676e-02       2.691138094682e+04 
       1.861540028002e-02       2.685362622363e+04 
       1.874240963377e-02       2.679140938406e+04 
       1.886947904731e-02       2.672990236213e+04 
       1.899660958736e-02       2.667219849277e+04 
       1.912380234852e-02       2.660867870991e+04 
       1.925105845382e-02       2.654511864661e+04 
       1.937837905525e-02       2.647591092838e+04 
       1.950576533429e-02       2.641233489338e+04 
       1.963321850252e-02       2.634608790099e+04 
       1.976073980221e-02       2.627686275275e+04 
       1.988833050690e-02       2.620824316908e+04 
       2.001599192209e-02       2.613806112687e+04 
       2.014372538584e-02       2.606705922892e+04 
       2.027153226951e-02       2.599325452309e+04 
       2.039941397841e-02       2.592173639859e+04 
       2.052737195254e-02       2.584457859766e+04 
       2.065540766736e-02       2.577302889338e+04 
       2.078352263454e-02       2.569718579962e+04 
       2.091171840274e-02       2.561851548545e+04 
       2.103999655847e-02       2.554309335404e+04 
       2.116835872693e-02       2.546501883285e+04 
       2.129680657285e-02       2.538394140582e+04 
       2.142534180145e-02       2.530568872967e+04 
       2.155396615929e-02       2.522418689220e+04 
       2.168268143533e-02       2.514485771786e+04 
       2.181148946184e-02       2.506321267992e+04 
       2.194039211545e-02       2.498021797997e+04 
       2.206939131822e-02       2.489538052620e+04 
       2.219848903868e-02       2.481196541761e+04 
       2.232768729302e-02       2.472864247982e+04 
       2.245698814617e-02       2.464286809909e+04 
       2.258639371305e-02       2.455841804259e+04 
       2.271590615976e-02       2.447058180990e+04 
       2.284552770490e-02       2.438428741478e+04 
       2.297526062082e-02       2.429642083941e+04 
       2.310510723500e-02       2.421030016509e+04 
       2.323506993146e-02       2.412194553412e+04 
       2.336515115214e-02       2.403382235941e+04 
       2.349535339848e-02       2.394424249555e+04 
       2.362567923285e-02       2.385351526134e+04 
       2.375613128022e-02       2.376314628589e+04 
       2.388671222971e-02       2.367416439919e+04 
       2.401742483637e-02       2.358165037862e+04 
       2.414827192283e-02       2.349208981699e+04 
       2.427925638116e-02       2.340009482070e+04 
       2.441038117473e-02       2.330781146843e+04 
       2.454164934008e-02       2.321345038553e+04 
       2.467306398897e-02       2.312279218929e+04 
       2.480462831037e-02       2.302998878204e+04 
       2.493634557264e-02       2.293622069421e+04 
       2.506821912568e-02       2.284230001782e+04 
       2.520025240323e-02       2.274861061424e+04 
       2.533244892517e-02       2.265447421504e+04 
       2.546481230000e-02       2.256011154782e+04 
       2.559734622734e-02       2.246497350815e+04 
       2.573005450050e-02       2.236984015880e+04 
       2.586294100920e-02       2.227391047229e+04 
       2.599600974235e-02       2.217974122928e+04 
       2.612926479092e-02       2.208357029819e+04 
       2.626271035097e-02       2.198844009429e+04 
       2.639635072669e-02       2.189239102568e+04 
       2.653019033368e-02       2.179761153658e+04 
       2.666423370222e-02       2.169989011861e+04 
       2.679848548073e-02       2.160427512914e+04 
       2.693295043939e-02       2.150950537362e+04 
       2.706763347381e-02       2.141249980699e+04 
       2.720253960889e-02       2.131492218760e+04 
       2.733767400285e-02       2.121965941582e+04 
       2.747304195135e-02       2.112275505880e+04 
       2.760864889181e-02       2.102649643217e+04 
       2.774450040790e-02       2.092920256163e+04 
       2.788060223418e-02       2.083151370100e+04 
       2.801696026096e-02       2.073557446541e+04 
       2.815358053932e-02       2.063788079473e+04 
       2.829046928633e-02       2.054210246439e+04 
       2.842763289051e-02       2.044532121480e+04 
       2.856507791752e-02       2.034855560512e+04 
       2.870281111598e-02       2.025191917554e+04 
       2.884083942372e-02       2.015492383560e+04 
       2.897916997408e-02       2.005798740606e+04 
       2.911781010264e-02       1.996074233461e+04 
       2.925676735414e-02       1.986391139713e+04 
       2.939604948975e-02       1.976852719497e+04 
       2.953566449461e-02       1.967144002261e+04 
       2.967562058574e-02       1.957551933428e+04 
       2.981592622025e-02       1.947867986710e+04 
       2.995659010396e-02       1.938214122025e+04 
       3.009762120039e-02       1.928653106767e+04 
       3.023902874013e-02       1.919056744406e+04 
       3.038082223067e-02       1.909436341747e+04 
       3.052301146668e-02       1.899854887810e+04 
       3.066560654071e-02       1.890231453128e+04 
       3.080861785452e-02       1.880698235296e+04 
       3.095205613075e-02       1.871148442652e+04 
       3.109593242535e-02       1.861582325828e+04 
       3.124025814046e-02       1.852088169885e+04 
       3.138504503801e-02       1.842590790500e+04 
       3.153030525390e-02       1.833117945535e+04 
       3.167605131297e-02       1.823665496689e+04 
       3.182229614467e-02       1.814187127163e+04 
       3.196905309950e-02       1.804736336613e+04 
       3.211633596638e-02       1.795250664131e+04 
       3.226415899079e-02       1.785872230325e+04 
       3.241253689397e-02       1.776482193126e+04 
       3.256148489305e-02       1.767172890068e+04 
       3.271101872232e-02       1.757830942824e+04 
       3.286115465554e-02       1.748458957198e+04 
       3.301190952960e-02       1.739202691395e+04 
       3.316330076937e-02       1.729894871916e+04 
       3.331534641396e-02       1.720636296922e+04 
       3.346806514449e-02       1.711390068902e+04 
       3.362147631337e-02       1.702169209679e+04 
       3.377559997535e-02       1.692972035363e+04 
       3.393045692025e-02       1.683786731875e+04 
       3.408606870774e-02       1.674604268990e+04 
       3.424245770413e-02       1.665506031104e+04 
       3.439964712131e-02       1.656386426006e+04 
       3.455766105817e-02       1.647210092885e+04 
       3.471652454453e-02       1.638210666051e+04 
       3.487626358771e-02       1.629163559796e+04 
       3.503690522223e-02       1.620129061764e+04 
       3.519847756247e-02       1.611147462193e+04 
       3.536100985890e-02       1.602122336316e+04 
       3.552453255792e-02       1.593205323186e+04 
       3.568907736563e-02       1.584251683214e+04 
       3.585467731595e-02       1.575382265911e+04 
       3.602136684339e-02       1.566441935212e+04 
       3.618918186071e-02       1.557598200921e+04 
       3.635815984217e-02       1.548787560211e+04 
       3.652833991256e-02       1.539968457953e+04 
       3.669976294267e-02       1.531194980575e+04 
       3.687247165170e-02       1.522400461443e+04 
       3.704651071723e-02       1.513674557472e+04 
       3.722192689344e-02       1.504966180455e+04 
       3.739876913827e-02       1.496253817711e+04 
       3.757708875047e-02       1.487565995714e+04 
       3.775693951725e-02       1.478920017347e+04 
       3.793837787381e-02       1.470294489194e+04 
       3.812146307557e-02       1.461688861143e+04 
       3.830625738465e-02       1.453108874283e+04 
       3.849282627181e-02       1.444488302094e+04 
       3.868123863541e-02       1.435968055276e+04 
       3.887156703931e-02       1.427425968738e+04 
       3.906388797140e-02       1.418931331419e+04 
       3.925828212517e-02       1.410471229254e+04 
       3.945483470672e-02       1.402027234786e+04 
       3.965363576990e-02       1.393584958271e+04 
       3.985478058284e-02       1.385145042073e+04 
       4.005837002935e-02       1.376737830750e+04 
       4.026451104911e-02       1.368335736842e+04 
       4.047331712143e-02       1.359970716231e+04 
       4.068490879747e-02       1.351636665260e+04 
       4.089941428709e-02       1.343308959179e+04 
       4.111697010687e-02       1.334977400316e+04 
       4.133772179711e-02       1.326645738637e+04 
       4.156182471672e-02       1.318353341119e+04 
       4.178944492611e-02       1.310109976276e+04 
       4.202076016996e-02       1.301833643907e+04 
       4.225596097342e-02       1.293577667678e+04 
       4.249525186759e-02       1.285324736352e+04 
       4.273885276279e-02       1.277079181362e+04 
       4.298700049089e-02       1.268869663291e+04 
       4.323995054208e-02       1.260649107592e+04 
       4.349797902550e-02       1.252395810184e+04 
       4.376138488864e-02       1.244216814636e+04 
       4.403049243654e-02       1.235982483294e+04 
       4.430565419980e-02       1.227805313602e+04 
       4.458725420946e-02       1.219581433027e+04 
       4.487571174827e-02       1.211385416279e+04 
       4.517148566183e-02       1.203182047960e+04 
       4.547507932994e-02       1.194971587763e+04 
       4.578704641980e-02       1.186720804416e+04 
       4.610799756850e-02       1.178507531813e+04 
       4.643860817483e-02       1.170235973306e+04 
       4.677962752079e-02       1.161987061147e+04 
       4.713188949395e-02       1.153703101417e+04 
       4.749632524579e-02       1.145396623460e+04 
       4.787397820149e-02       1.137056318445e+04 
       4.826602193956e-02       1.128696097044e+04 
       4.867378158906e-02       1.120275875613e+04 
       4.909875955848e-02       1.111823172157e+04 
       4.954266662114e-02       1.103356426713e+04 
       5.000745965131e-02       1.094796554257e+04 
       5.049538764641e-02       1.086158566050e+04 
       5.100904810076e-02       1.077442770938e+04 
       5.155145632959e-02       1.068660863282e+04 
       5.212613098794e-02       1.059736246388e+04 
       5.273719977482e-02       1.050656812740e+04 
       5.338953009948e-02       1.041447816311e+04 
       5.408889015097e-02       1.032001669925e+04 
       5.484214597719e-02       1.022296426489e+04 
       5.565749905104e-02       1.012271155033e+04 
       5.654476478738e-02       1.001814131145e+04 
       5.751568256341e-02       9.907949252989e+03 
       5.858422663169e-02       9.790288364828e+03 
