# dimensionless total [l(l+1)/2pi] C_l's
# for l=2 to 2500, i.e. number of multipoles equal to 2499
#
# -> if you prefer output in CAMB/HealPix/LensPix units/order, set 'format' to 'camb' in input file
# -> if you don't want to see such a header, set 'headers' to 'no' in input file
# -> for CMB lensing (phi), these are C_l^phi-phi for the lensing potential.
#    Remember the conversion factors:
#    C_l^dd (deflection) = l(l+1) C_l^phi-phi
#    C_l^gg (shear/convergence) = 1/4 (l(l+1))^2 C_l^phi-phi
#
# 1:l     2:TT                     3:EE                     4:TE                     5:BB                     6:phiphi                 7:TPhi                   8:Ephi               
    2       2.879752766654e-10       6.033972333528e-15       6.014436594637e-13       0.000000000000e+00       1.094081828490e-08       1.075365953121e-09      -2.006052772533e-12 
    3       2.420657544489e-10       7.846388368411e-15       6.745233029173e-13       0.000000000000e+00       6.746858071040e-09       7.269716202130e-10      -1.416470865631e-12 
    4       2.094753086134e-10       7.017227940232e-15       6.172635258655e-13       0.000000000000e+00       4.648844911555e-09       5.306243430131e-10      -8.803957737179e-13 
    5       1.869618883448e-10       4.995292752762e-15       5.068922123418e-13       0.000000000000e+00       3.434356450380e-09       4.069551154287e-10      -4.852443907142e-13 
    6       1.710970174493e-10       3.117804673607e-15       3.926890938981e-13       0.000000000000e+00       2.654959631936e-09       3.227010700307e-10      -2.170969271907e-13 
    7       1.596617893723e-10       1.929690037575e-15       3.023611985601e-13       0.000000000000e+00       2.118885454388e-09       2.621695475096e-10      -5.041681297509e-14 
    8       1.512877176442e-10       1.338614838521e-15       2.425580771106e-13       0.000000000000e+00       1.732449131159e-09       2.170567745744e-10       3.386117042536e-14 
    9       1.451149365841e-10       1.058783123932e-15       2.083681285452e-13       0.000000000000e+00       1.444302203267e-09       1.824732009113e-10       5.445023905219e-14 
   10       1.405412804165e-10       9.001482150658e-16       1.927723892393e-13       0.000000000000e+00       1.223383655489e-09       1.553466247135e-10       3.353707420209e-14 
   11       1.372351588208e-10       8.114111812434e-16       1.896133036440e-13       0.000000000000e+00       1.031149707364e-09       1.337459445403e-10      -6.301841190800e-15 
   12       1.348467892477e-10       7.998058620383e-16       1.934726605981e-13       0.000000000000e+00       8.934974649314e-10       1.160486708809e-10      -4.631067594698e-14 
   13       1.331527630273e-10       8.628398985953e-16       2.001490602723e-13       0.000000000000e+00       7.811561733198e-10       1.013066510061e-10      -7.524903560671e-14 
   14       1.320895358163e-10       9.779199280522e-16       2.069397454913e-13       0.000000000000e+00       6.878486338997e-10       8.904632876141e-11      -8.799483810094e-14 
   15       1.315119474772e-10       1.123193449534e-15       2.124883968148e-13       0.000000000000e+00       6.100620998279e-10       7.871140835312e-11      -8.591849300981e-14 
   16       1.312778525014e-10       1.291699586214e-15       2.166263699700e-13       0.000000000000e+00       5.443286556054e-10       6.982002668448e-11      -7.439921463614e-14 
   17       1.313822506364e-10       1.487156633302e-15       2.199324157825e-13       0.000000000000e+00       4.881215973160e-10       6.227889998970e-11      -5.880363564286e-14 
   18       1.317537916271e-10       1.712971280083e-15       2.231355368011e-13       0.000000000000e+00       4.396104537457e-10       5.578266165356e-11      -4.455795921162e-14 
   19       1.323820323605e-10       1.967127023365e-15       2.267806743935e-13       0.000000000000e+00       3.979809133892e-10       5.017347187772e-11      -3.441093347731e-14 
   20       1.332020301583e-10       2.244934922387e-15       2.312476052444e-13       0.000000000000e+00       3.615424928231e-10       4.522991268421e-11      -2.988439354788e-14 
   21       1.341978979553e-10       2.543518309535e-15       2.364292872827e-13       0.000000000000e+00       3.296609719765e-10       4.091561361581e-11      -3.011779676328e-14 
   22       1.353280688705e-10       2.860337870793e-15       2.419010116307e-13       0.000000000000e+00       3.015154555077e-10       3.717254328766e-11      -3.296096324381e-14 
   23       1.365991163444e-10       3.194195867250e-15       2.471362032091e-13       0.000000000000e+00       2.766858396313e-10       3.388653746185e-11      -3.643915525404e-14 
   24       1.380012546637e-10       3.544378743105e-15       2.515084243433e-13       0.000000000000e+00       2.545663400181e-10       3.089643187585e-11      -3.853774555045e-14 
   25       1.395184378107e-10       3.910702933550e-15       2.546878085908e-13       0.000000000000e+00       2.348608499325e-10       2.821542611881e-11      -3.856247652673e-14 
   26       1.411152040933e-10       4.293677981857e-15       2.564509999177e-13       0.000000000000e+00       2.171737898127e-10       2.587518255988e-11      -3.640625424475e-14 
   27       1.427961917441e-10       4.695822006387e-15       2.568127597458e-13       0.000000000000e+00       2.012773217722e-10       2.381307266926e-11      -3.277100793187e-14 
   28       1.445645412854e-10       5.120337161454e-15       2.558934098588e-13       0.000000000000e+00       1.868861625450e-10       2.192708987292e-11      -2.869813996573e-14 
   29       1.464234418118e-10       5.568567248415e-15       2.538745238505e-13       0.000000000000e+00       1.739139327620e-10       2.020655466983e-11      -2.487184618433e-14 
   30       1.483586083016e-10       6.041350111953e-15       2.509958264757e-13       0.000000000000e+00       1.622044978512e-10       1.865618660680e-11      -2.197241889060e-14 
   31       1.503424763578e-10       6.539442904205e-15       2.474823359660e-13       0.000000000000e+00       1.514986634769e-10       1.726686582268e-11      -2.059794921252e-14 
   32       1.523779523765e-10       7.063037562491e-15       2.432889540329e-13       0.000000000000e+00       1.417319136898e-10       1.602593397278e-11      -2.046158611371e-14 
   33       1.544678971353e-10       7.612049085885e-15       2.382544538349e-13       0.000000000000e+00       1.328278453644e-10       1.490790012911e-11      -2.087491175250e-14 
   34       1.566071425124e-10       8.186356923799e-15       2.321910557604e-13       0.000000000000e+00       1.246523505675e-10       1.388000010286e-11      -2.110131175286e-14 
   35       1.587994363137e-10       8.786250416785e-15       2.249843338172e-13       0.000000000000e+00       1.171561888958e-10       1.293634127340e-11      -2.092053270162e-14 
   36       1.610444347395e-10       9.412135117225e-15       2.165232399216e-13       0.000000000000e+00       1.102708252343e-10       1.207424412836e-11      -2.025430652885e-14 
   37       1.633361190286e-10       1.006438802264e-14       2.067059777089e-13       0.000000000000e+00       1.038970118174e-10       1.128690004115e-11      -1.906467957264e-14 
   38       1.656762581217e-10       1.074326058774e-14       1.955581028641e-13       0.000000000000e+00       9.801399714921e-11       1.057112615255e-11      -1.751623049605e-14 
   39       1.680639980959e-10       1.144894236448e-14       1.831529033483e-13       0.000000000000e+00       9.259976194728e-11       9.921353700043e-12      -1.587143004547e-14 
   40       1.704913551489e-10       1.218158492089e-14       1.695806733181e-13       0.000000000000e+00       8.759798572299e-11       9.327020642145e-12      -1.445199147154e-14 
   41       1.729474322483e-10       1.294133798385e-14       1.549274100825e-13       0.000000000000e+00       8.293677997633e-11       8.775765758516e-12      -1.355164044077e-14 
   42       1.754344161631e-10       1.372847583530e-14       1.392009050883e-13       0.000000000000e+00       7.859935060845e-11       8.265258702102e-12      -1.313136539490e-14 
   43       1.779556003811e-10       1.454330938939e-14       1.223817549177e-13       0.000000000000e+00       7.457134736618e-11       7.794522812354e-12      -1.303119757591e-14 
   44       1.805105518139e-10       1.538615300067e-14       1.044424712870e-13       0.000000000000e+00       7.081970389110e-11       7.360494890637e-12      -1.305008415050e-14 
   45       1.830970191368e-10       1.625727913888e-14       8.535023820541e-14       0.000000000000e+00       6.730378163597e-11       6.959073476885e-12      -1.299321885969e-14 
   46       1.857182041764e-10       1.715676390708e-14       6.507811446129e-14       0.000000000000e+00       6.401624616797e-11       6.589030068243e-12      -1.283691333087e-14 
   47       1.883770392348e-10       1.808459703430e-14       4.359577402562e-14       0.000000000000e+00       6.095190524040e-11       6.248983751053e-12      -1.260868057467e-14 
   48       1.910738696636e-10       1.904072255938e-14       2.086560878846e-14       0.000000000000e+00       5.809542534450e-11       5.936193648340e-12      -1.234195053500e-14 
   49       1.938062174237e-10       2.002503715963e-14      -3.157891722345e-15       0.000000000000e+00       5.542058511032e-11       5.646462254546e-12      -1.207639411590e-14 
   50       1.965702488718e-10       2.103740734905e-14      -2.851882689529e-14       0.000000000000e+00       5.289786764396e-11       5.375236457932e-12      -1.185040123557e-14 
   51       1.993661963522e-10       2.207773045425e-14      -5.522752534201e-14       0.000000000000e+00       5.052139919714e-11       5.121487198401e-12      -1.167535622291e-14 
   52       2.021939995338e-10       2.314588730059e-14      -8.328519311189e-14       0.000000000000e+00       4.828803215255e-11       4.884715807094e-12      -1.155493986859e-14 
   53       2.050515772703e-10       2.424172402430e-14      -1.126932289065e-13       0.000000000000e+00       4.618929940281e-11       4.663809012147e-12      -1.149232098594e-14 
   54       2.079346713592e-10       2.536505128906e-14      -1.434533768914e-13       0.000000000000e+00       4.421106017183e-11       4.456998635191e-12      -1.149011121566e-14 
   55       2.108388265096e-10       2.651566173505e-14      -1.755672642519e-13       0.000000000000e+00       4.233761901907e-11       4.262360400852e-12      -1.154751286921e-14 
   56       2.137662641695e-10       2.769338919708e-14      -2.090345292523e-13       0.000000000000e+00       4.056609249907e-11       4.079547805101e-12      -1.165103627899e-14 
   57       2.167204426358e-10       2.889806282529e-14      -2.438544958080e-13       0.000000000000e+00       3.889499111694e-11       3.908418382285e-12      -1.178139727549e-14 
   58       2.197039990328e-10       3.012949007007e-14      -2.800268740359e-13       0.000000000000e+00       3.731988285514e-11       3.748513451043e-12      -1.191597091664e-14 
   59       2.227186762998e-10       3.138745660897e-14      -3.175518890945e-13       0.000000000000e+00       3.583321327470e-11       3.599038815210e-12      -1.202863693029e-14 
   60       2.257652501787e-10       3.267172627364e-14      -3.564304100250e-13       0.000000000000e+00       3.442412561649e-11       3.458845464727e-12      -1.208962515684e-14 
   61       2.288439446080e-10       3.398197784550e-14      -3.966622373617e-13       0.000000000000e+00       3.308137751349e-11       3.326717730985e-12      -1.207227492322e-14 
   62       2.319559520335e-10       3.531759902977e-14      -4.382402253345e-13       0.000000000000e+00       3.180326315099e-11       3.202356994837e-12      -1.197543577018e-14 
   63       2.351021263389e-10       3.667784589657e-14      -4.811550629577e-13       0.000000000000e+00       3.058960914387e-11       3.085585540700e-12      -1.180584342645e-14 
   64       2.382824681764e-10       3.806189989643e-14      -5.253970678652e-13       0.000000000000e+00       2.943879442375e-11       2.976049231502e-12      -1.157171309750e-14 
   65       2.414960674513e-10       3.946886578411e-14      -5.709562567304e-13       0.000000000000e+00       2.834766859332e-11       2.873207964884e-12      -1.128280428190e-14 
   66       2.447410458062e-10       4.089776954241e-14      -6.178224156861e-13       0.000000000000e+00       2.731147028075e-11       2.776326129404e-12      -1.095048558769e-14 
   67       2.480144991056e-10       4.234755630601e-14      -6.659851707447e-13       0.000000000000e+00       2.632374549406e-11       2.684463060742e-12      -1.058779954873e-14 
   68       2.513136078070e-10       4.381718900188e-14      -7.154326297548e-13       0.000000000000e+00       2.537802338982e-11       2.596698706996e-12      -1.020774897534e-14 
   69       2.546393579022e-10       4.530597212088e-14      -7.661468313233e-13       0.000000000000e+00       2.447342037986e-11       2.512885055481e-12      -9.817607910884e-15 
   70       2.579934740771e-10       4.681329012252e-14      -8.181074959939e-13       0.000000000000e+00       2.361003010983e-11       2.433030519467e-12      -9.423569067699e-15 
   71       2.613772913853e-10       4.833851301375e-14      -8.712934063956e-13       0.000000000000e+00       2.278723047576e-11       2.357074735916e-12      -9.032439282739e-15 
   72       2.647917276011e-10       4.988099684867e-14      -9.256824411293e-13       0.000000000000e+00       2.200364692516e-11       2.284885037266e-12      -8.651658848904e-15 
   73       2.682372555739e-10       5.144008422823e-14      -9.812516086539e-13       0.000000000000e+00       2.125711575804e-11       2.216252923214e-12      -8.289320846342e-15 
   74       2.717138755813e-10       5.301510479992e-14      -1.037977081173e-12       0.000000000000e+00       2.054464742789e-11       2.150890532493e-12      -7.954190473758e-15 
   75       2.752210876833e-10       5.460537575744e-14      -1.095834228522e-12       0.000000000000e+00       1.986238984279e-11       2.088427114656e-12      -7.655724379726e-15 
   76       2.787583002142e-10       5.621014060280e-14      -1.154797589006e-12       0.000000000000e+00       1.920656469376e-11       2.028497369871e-12      -7.401639834119e-15 
   77       2.823262023712e-10       5.782837143560e-14      -1.214840700882e-12       0.000000000000e+00       1.857655468593e-11       1.971032865367e-12      -7.190067756656e-15 
   78       2.859255928590e-10       5.945893135054e-14      -1.275936301565e-12       0.000000000000e+00       1.797231521981e-11       1.916017597017e-12      -7.015997228230e-15 
   79       2.895569475563e-10       6.110063222279e-14      -1.338056420024e-12       0.000000000000e+00       1.739343483203e-11       1.863399217900e-12      -6.873568295923e-15 
   80       2.932204008124e-10       6.275223394167e-14      -1.401172409365e-12       0.000000000000e+00       1.683911844903e-11       1.813087393913e-12      -6.756041061802e-15 
   81       2.969157267446e-10       6.441244364435e-14      -1.465254979432e-12       0.000000000000e+00       1.630817064084e-11       1.764952159382e-12      -6.655764771715e-15 
   82       3.006423205351e-10       6.607991494960e-14      -1.530274229398e-12       0.000000000000e+00       1.579897887481e-11       1.718822272666e-12      -6.564146904088e-15 
   83       3.043991797284e-10       6.775324719150e-14      -1.596199680359e-12       0.000000000000e+00       1.530949676936e-11       1.674483571773e-12      -6.471622258722e-15 
   84       3.081853133397e-10       6.943103771725e-14      -1.662999434876e-12       0.000000000000e+00       1.483773299760e-11       1.631728651844e-12      -6.369795763354e-15 
   85       3.120010880751e-10       7.111205042073e-14      -1.730637424135e-12       0.000000000000e+00       1.438334780493e-11       1.590518961982e-12      -6.258346757244e-15 
   86       3.158470720334e-10       7.279507387321e-14      -1.799075762064e-12       0.000000000000e+00       1.394629168739e-11       1.550846690679e-12      -6.139217939132e-15 
   87       3.197236153935e-10       7.447887086706e-14      -1.868275595457e-12       0.000000000000e+00       1.352631514748e-11       1.512685062874e-12      -6.014548955058e-15 
   88       3.236308389023e-10       7.616217854125e-14      -1.938197121903e-12       0.000000000000e+00       1.312296044627e-11       1.475987558109e-12      -5.886682020228e-15 
   89       3.275686223610e-10       7.784370850696e-14      -2.008799607698e-12       0.000000000000e+00       1.273555335538e-11       1.440687128699e-12      -5.758167540878e-15 
   90       3.315365931135e-10       7.952214697309e-14      -2.080041405771e-12       0.000000000000e+00       1.236319490914e-11       1.406695417886e-12      -5.631769736149e-15 
   91       3.355341145322e-10       8.119615487181e-14      -2.151879973606e-12       0.000000000000e+00       1.200475315658e-11       1.373901978010e-12      -5.510472259949e-15 
   92       3.395602745066e-10       8.286436798414e-14      -2.224271891154e-12       0.000000000000e+00       1.165885491351e-11       1.342173488663e-12      -5.397483822826e-15 
   93       3.436141959170e-10       8.452541198865e-14      -2.297172764084e-12       0.000000000000e+00       1.132420799366e-11       1.311385242460e-12      -5.295509588236e-15 
   94       3.476960464807e-10       8.617794992410e-14      -2.370536877940e-12       0.000000000000e+00       1.100064125442e-11       1.281522717432e-12      -5.204427799263e-15 
   95       3.518061602079e-10       8.782064213054e-14      -2.444317524854e-12       0.000000000000e+00       1.068820645231e-11       1.252593906666e-12      -5.123272484721e-15 
   96       3.559447219489e-10       8.945213228813e-14      -2.518467129723e-12       0.000000000000e+00       1.038685803967e-11       1.224598077508e-12      -5.050932152356e-15 
   97       3.601117603013e-10       9.107104774753e-14      -2.592937266550e-12       0.000000000000e+00       1.009644945324e-11       1.197525432654e-12      -4.986145332120e-15 
   98       3.643071405170e-10       9.267599986032e-14      -2.667678674794e-12       0.000000000000e+00       9.816729402603e-12       1.171356771246e-12      -4.927496119445e-15 
   99       3.685305574095e-10       9.426558430936e-14      -2.742641275717e-12       0.000000000000e+00       9.547338158687e-12       1.146063149965e-12      -4.873409718516e-15 
  100       3.727815282605e-10       9.583838143923e-14      -2.817774188726e-12       0.000000000000e+00       9.287803842265e-12       1.121605544125e-12      -4.822147985544e-15 
  101       3.770593857275e-10       9.739295658658e-14      -2.893025747722e-12       0.000000000000e+00       9.037538712450e-12       1.097934508771e-12      -4.771804972040e-15 
  102       3.813632707505e-10       9.892786041057e-14      -2.968343517448e-12       0.000000000000e+00       8.795835455180e-12       1.074989839766e-12      -4.720302468089e-15 
  103       3.856921254593e-10       1.004416292232e-13      -3.043674309831e-12       0.000000000000e+00       8.561863471720e-12       1.052700234894e-12      -4.665385545625e-15 
  104       3.900449380392e-10       1.019328193508e-13      -3.118964313620e-12       0.000000000000e+00       8.334855654654e-12       1.030999998303e-12      -4.605140749779e-15 
  105       3.944215302782e-10       1.034001147920e-13      -3.194159468014e-12       0.000000000000e+00       8.114705444649e-12       1.009882453720e-12      -4.539639993795e-15 
  106       3.988218636777e-10       1.048422347867e-13      -3.269205170215e-12       0.000000000000e+00       7.901443883516e-12       9.893531483601e-13      -4.469511455527e-15 
  107       4.032457927224e-10       1.062579017790e-13      -3.344046184024e-12       0.000000000000e+00       7.695054730248e-12       9.694133040988e-13      -4.395438030701e-15 
