# Matter power spectrum P(k) at redshift z=0
# for k=9.63987e-06 to 1.69354 h/Mpc,
# number of wavenumbers equal to 561
#    1:k (h/Mpc)              2:P (Mpc/h)^3        
       9.639867365113e-06       6.080002488433e+01 
       2.213034031270e-05       1.352337963620e+02 
       3.466088194350e-05       2.082286090580e+02 
       4.726318587535e-05       2.801896905767e+02 
       5.996942861945e-05       3.523490866955e+02 
       7.281253941793e-05       4.247224205948e+02 
       8.582647808684e-05       4.975984503796e+02 
       9.904652436005e-05       5.708879496595e+02 
       1.125095822572e-04       6.455051165376e+02 
       1.262545030298e-04       7.212901126685e+02 
       1.403224302540e-04       7.986870490275e+02 
       1.547571706132e-04       8.781999684496e+02 
       1.696055938074e-04       9.567613967653e+02 
       1.849180647934e-04       1.041737636623e+03 
       2.007489111366e-04       1.127793341500e+03 
       2.171569275468e-04       1.212935734668e+03 
       2.342059185712e-04       1.304686569485e+03 
       2.519652787727e-04       1.400128821163e+03 
       2.705106073558e-04       1.499651978916e+03 
       2.899243508740e-04       1.603701139925e+03 
       3.102964631196e-04       1.712817068461e+03 
       3.317250652337e-04       1.819294148787e+03 
       3.543170812160e-04       1.939255446634e+03 
       3.781888140695e-04       2.063053558988e+03 
       4.034664156836e-04       2.195971117267e+03 
       4.302861893466e-04       2.333057511404e+03 
       4.587946480553e-04       2.479611493914e+03 
       4.891482357988e-04       2.634259338309e+03 
       5.215126049148e-04       2.798824029459e+03 
       5.560613338299e-04       2.974398159640e+03 
       5.929739706475e-04       3.158032212180e+03 
       6.324333048127e-04       3.354955917956e+03 
       6.746218073649e-04       3.564454557207e+03 
       7.197172446387e-04       3.788549379216e+03 
       7.678875615600e-04       4.023650874644e+03 
       8.192852434407e-04       4.274672303602e+03 
       8.740414854660e-04       4.537349833676e+03 
       9.322606044816e-04       4.815989856270e+03 
       9.940151906753e-04       5.108486707377e+03 
       1.059342491775e-03       5.414768327920e+03 
       1.128242435280e-03       5.734763415017e+03 
       1.200677530165e-03       6.067602760360e+03 
       1.276574675090e-03       6.412369774811e+03 
       1.355828677861e-03       6.768352671211e+03 
       1.438307106036e-03       7.134196632681e+03 
       1.523855975668e-03       7.508186623744e+03 
       1.612305757846e-03       7.890654453651e+03 
       1.703477232842e-03       8.277764670963e+03 
       1.797186825149e-03       8.670333233067e+03 
       1.893251179895e-03       9.067044638104e+03 
       1.991490865261e-03       9.466382741663e+03 
       2.091733188789e-03       9.867469544996e+03 
       2.193814189503e-03       1.026948995486e+04 
       2.297579912274e-03       1.067090706356e+04 
       2.402887090523e-03       1.107166032465e+04 
       2.509603364759e-03       1.147017599902e+04 
       2.617607154304e-03       1.186673693599e+04 
       2.726787283315e-03       1.226056963399e+04 
       2.837042443925e-03       1.265092129938e+04 
       2.948280561505e-03       1.303764327859e+04 
       3.060418111164e-03       1.341972117504e+04 
       3.173379421196e-03       1.379753698977e+04 
       3.287095988392e-03       1.417056982607e+04 
       3.401505821771e-03       1.453865802730e+04 
       3.516552824906e-03       1.490151691036e+04 
       3.632186222434e-03       1.525905007747e+04 
       3.748360033005e-03       1.561099357205e+04 
       3.865032588695e-03       1.595717234509e+04 
       3.982166099371e-03       1.629776399453e+04 
       4.099726259609e-03       1.663248384013e+04 
       4.217681895203e-03       1.696147056538e+04 
       4.336004646095e-03       1.728452081737e+04 
       4.454668682488e-03       1.760157540619e+04 
       4.573650450979e-03       1.791276799260e+04 
       4.692928447732e-03       1.821800233615e+04 
       4.812483015873e-03       1.851731644181e+04 
       4.932296164559e-03       1.881076003136e+04 
       5.052351407361e-03       1.909848477833e+04 
       5.172633617850e-03       1.938272713359e+04 
       5.293128900494e-03       1.966110444424e+04 
       5.413824475151e-03       1.994607488420e+04 
       5.534708573654e-03       2.019486156781e+04 
       5.655770347140e-03       2.045062120784e+04 
       5.776999782922e-03       2.071078659012e+04 
       5.898387629847e-03       2.098391421066e+04 
       6.019925331212e-03       2.122264395392e+04 
       6.141604964388e-03       2.143676209287e+04 
       6.263419186442e-03       2.166237628790e+04 
       6.385361185087e-03       2.191015861910e+04 
       6.507424634395e-03       2.211813861073e+04 
       6.629603654771e-03       2.234140180887e+04 
       6.751892776717e-03       2.254717240803e+04 
       6.874286908014e-03       2.274085720000e+04 
       6.996781303939e-03       2.293821441729e+04 
       7.119371540232e-03       2.313586410563e+04 
       7.242053488507e-03       2.333839734101e+04 
       7.364823293878e-03       2.351360561848e+04 
       7.487677354575e-03       2.371296681004e+04 
       7.610612303342e-03       2.389925437843e+04 
       7.733624990457e-03       2.407199202567e+04 
       7.856712468211e-03       2.423026826406e+04 
       7.979871976704e-03       2.437266872139e+04 
       8.103100930832e-03       2.453415162619e+04 
       8.226396908365e-03       2.469533184731e+04 
       8.349757638993e-03       2.483071591225e+04 
       8.473180994277e-03       2.498533114904e+04 
       8.596664978399e-03       2.512887748781e+04 
       8.720207719658e-03       2.524297003590e+04 
       8.843807462629e-03       2.539210928546e+04 
       8.967462560946e-03       2.551528562818e+04 
       9.091171470630e-03       2.564277010806e+04 
       9.214932743944e-03       2.574545423374e+04 
       9.338745023703e-03       2.585998620892e+04 
       9.462607038020e-03       2.597794655759e+04 
       9.586517595441e-03       2.608868537207e+04 
       9.710475580441e-03       2.620316270530e+04 
       9.834479949253e-03       2.628405380612e+04 
       9.958529726001e-03       2.640001449678e+04 
       1.008262399911e-02       2.647971071991e+04 
       1.020676191797e-02       2.656783163457e+04 
       1.033094268987e-02       2.666311480169e+04 
       1.045516557709e-02       2.674548113365e+04 
       1.057942989424e-02       2.682933583707e+04 
       1.070373500582e-02       2.691411604738e+04 
       1.082808032385e-02       2.697734395735e+04 
       1.095246530577e-02       2.704583940470e+04 
       1.107688945242e-02       2.710004478268e+04 
       1.120135230617e-02       2.717299838853e+04 
       1.132585344923e-02       2.723113033266e+04 
       1.145039250201e-02       2.728493143846e+04 
       1.157496912161e-02       2.733877767451e+04 
       1.169958300046e-02       2.739822877289e+04 
       1.182423386499e-02       2.745329536500e+04 
       1.194892147444e-02       2.748003689816e+04 
       1.207364561972e-02       2.752426662963e+04 
       1.219840612238e-02       2.755943215706e+04 
       1.232320283364e-02       2.759670123320e+04 
       1.244803563347e-02       2.764110975002e+04 
       1.257290442979e-02       2.766003475676e+04 
       1.269780915764e-02       2.769679206778e+04 
       1.282274977851e-02       2.772811814360e+04 
       1.294772627965e-02       2.775202099904e+04 
       1.307273867349e-02       2.776810916630e+04 
       1.319778699703e-02       2.778518273814e+04 
       1.332287131133e-02       2.779625059259e+04 
       1.344799170108e-02       2.780761041974e+04 
       1.357314827411e-02       2.781786423283e+04 
       1.369834116100e-02       2.783631445477e+04 
       1.382357051476e-02       2.784316956368e+04 
       1.394883651046e-02       2.784453590015e+04 
       1.407413934495e-02       2.785269771928e+04 
       1.419947923661e-02       2.784785163014e+04 
       1.432485642510e-02       2.783531129464e+04 
       1.445027117119e-02       2.783362892685e+04 
       1.457572375654e-02       2.784006866777e+04 
       1.470121448358e-02       2.782981477080e+04 
       1.482674367540e-02       2.781465644768e+04 
       1.495231167562e-02       2.779240371359e+04 
       1.507791884832e-02       2.778589051942e+04 
       1.520356557801e-02       2.776698997861e+04 
       1.532925226960e-02       2.774949445717e+04 
       1.545497934834e-02       2.772930888848e+04 
       1.558074725990e-02       2.770236274548e+04 
       1.570655647036e-02       2.768415154249e+04 
       1.583240746628e-02       2.764758670229e+04 
       1.595830075476e-02       2.763082679803e+04 
       1.608423686353e-02       2.760065318226e+04 
       1.621021634106e-02       2.756058382878e+04 
       1.633623975668e-02       2.752428999440e+04 
       1.646230770074e-02       2.748871476493e+04 
       1.658842078477e-02       2.745491223941e+04 
       1.671457964161e-02       2.742178163850e+04 
       1.684078492567e-02       2.737700649738e+04 
       1.696703731311e-02       2.733522832233e+04 
       1.709333750206e-02       2.729729913534e+04 
       1.721968621288e-02       2.724638342879e+04 
       1.734608418843e-02       2.720796907316e+04 
       1.747253219431e-02       2.716034665482e+04 
       1.759903101919e-02       2.711068775454e+04 
       1.772558147512e-02       2.705526977195e+04 
       1.785218439783e-02       2.700305082606e+04 
       1.797884064708e-02       2.695924558250e+04 
       1.810555110705e-02       2.689882961320e+04 
       1.823231668669e-02       2.684072259623e+04 
       1.835913832012e-02       2.678920327638e+04 
       1.848601696702e-02       2.672788059002e+04 
       1.861295361311e-02       2.667741293047e+04 
       1.873994927054e-02       2.661392423897e+04 
       1.886700497839e-02       2.654822342144e+04 
       1.899412180312e-02       2.648784092483e+04 
       1.912130083911e-02       2.642174142145e+04 
       1.924854320912e-02       2.635494465730e+04 
       1.937585006490e-02       2.629285782028e+04 
       1.950322258768e-02       2.622309478238e+04 
       1.963066198878e-02       2.615531538050e+04 
       1.975816951018e-02       2.609355455758e+04 
       1.988574642516e-02       2.602005943002e+04 
       2.001339403895e-02       2.594679937173e+04 
       2.014111368932e-02       2.588244814069e+04 
       2.026890674734e-02       2.580222657842e+04 
       2.039677461801e-02       2.573104127026e+04 
       2.052471874106e-02       2.565732594706e+04 
       2.065274059162e-02       2.557700160022e+04 
       2.078084168104e-02       2.550247452840e+04 
       2.090902355768e-02       2.542643858191e+04 
       2.103728780772e-02       2.534787203990e+04 
       2.116563605601e-02       2.527076613525e+04 
       2.129406996695e-02       2.519448631805e+04 
       2.142259124539e-02       2.511033908846e+04 
       2.155120163756e-02       2.502845730141e+04 
       2.167990293204e-02       2.494881069380e+04 
       2.180869696072e-02       2.486898524792e+04 
       2.193758559987e-02       2.478768208623e+04 
       2.206657077113e-02       2.469744234677e+04 
       2.219565444266e-02       2.461916010359e+04 
       2.232483863021e-02       2.452949021481e+04 
       2.245412539832e-02       2.444519703820e+04 
       2.258351686147e-02       2.435751182593e+04 
       2.271301518533e-02       2.427213157105e+04 
       2.284262258803e-02       2.418456312881e+04 
       2.297234134148e-02       2.409708898705e+04 
       2.310217377268e-02       2.400826580213e+04 
       2.323212226517e-02       2.392108249430e+04 
       2.336218926042e-02       2.383183400830e+04 
       2.349237725934e-02       2.374528816976e+04 
       2.362268882379e-02       2.365300719063e+04 
       2.375312657820e-02       2.356585608910e+04 
       2.388369321118e-02       2.347002938571e+04 
       2.401439147718e-02       2.337963379947e+04 
       2.414522419829e-02       2.328807545659e+04 
       2.427619426600e-02       2.319797851711e+04 
       2.440730464306e-02       2.310364141126e+04 
       2.453855836541e-02       2.301526658666e+04 
       2.466995854417e-02       2.291853157213e+04 
       2.480150836769e-02       2.282475913618e+04 
       2.493321110364e-02       2.273057059490e+04 
       2.506507010125e-02       2.264091232819e+04 
       2.519708879357e-02       2.254348944052e+04 
       2.532927069976e-02       2.245231123003e+04 
       2.546161942759e-02       2.235487258368e+04 
       2.559413867592e-02       2.226013386411e+04 
       2.572683223730e-02       2.216460182475e+04 
       2.585970400064e-02       2.207189843614e+04 
       2.599275795405e-02       2.197459062933e+04 
       2.612599818766e-02       2.188086674822e+04 
       2.625942889666e-02       2.178706577541e+04 
       2.639305438438e-02       2.168814553315e+04 
       2.652687906549e-02       2.159210793189e+04 
       2.666090746934e-02       2.149467631238e+04 
       2.679514424341e-02       2.139802358943e+04 
       2.692959415688e-02       2.130552996995e+04 
       2.706426210435e-02       2.120597896099e+04 
       2.719915310969e-02       2.111038236673e+04 
       2.733427233003e-02       2.101490082351e+04 
       2.746962505994e-02       2.091924923131e+04 
       2.760521673571e-02       2.082071509869e+04 
       2.774105293983e-02       2.072174781037e+04 
       2.787713940567e-02       2.062708966043e+04 
       2.801348202231e-02       2.052921821988e+04 
       2.815008683953e-02       2.043257038155e+04 
       2.828696007312e-02       2.033474210838e+04 
       2.842410811025e-02       2.023916286590e+04 
       2.856153751515e-02       2.014127725150e+04 
       2.869925503506e-02       2.004645456317e+04 
       2.883726760629e-02       1.994836945337e+04 
       2.897558236068e-02       1.985329207738e+04 
       2.911420663223e-02       1.975372113964e+04 
       2.925314796407e-02       1.965684048837e+04 
       2.939241411568e-02       1.956042525892e+04 
       2.953201307050e-02       1.946485750215e+04 
       2.967195304374e-02       1.936914279916e+04 
       2.981224249070e-02       1.927112223662e+04 
       2.995289011528e-02       1.917582251225e+04 
       3.009390487906e-02       1.907920854839e+04 
       3.023529601058e-02       1.898233106879e+04 
       3.037707301526e-02       1.888922732877e+04 
       3.051924568558e-02       1.879012652655e+04 
       3.066182411189e-02       1.869464874277e+04 
       3.080481869359e-02       1.859866522105e+04 
       3.094824015096e-02       1.850437165245e+04 
       3.109209953746e-02       1.840807171883e+04 
       3.123640825266e-02       1.831376945266e+04 
       3.138117805582e-02       1.821951049729e+04 
       3.152642108010e-02       1.812258030335e+04 
       3.167214984749e-02       1.802852152664e+04 
       3.181837728447e-02       1.793328755563e+04 
       3.196511673849e-02       1.783953764121e+04 
       3.211238199526e-02       1.774503349702e+04 
       3.226018729698e-02       1.765105355817e+04 
       3.240854736145e-02       1.755653954890e+04 
       3.255747740225e-02       1.746518333966e+04 
       3.270699314995e-02       1.736971420400e+04 
       3.285711087449e-02       1.727647749182e+04 
       3.300784740875e-02       1.718512229636e+04 
       3.315922017343e-02       1.709252203175e+04 
       3.331124720334e-02       1.699768612312e+04 
       3.346394717507e-02       1.690558040531e+04 
       3.361733943635e-02       1.681376662516e+04 
       3.377144403704e-02       1.672144515721e+04 
       3.392628176186e-02       1.662932254736e+04 
       3.408187416518e-02       1.653727783656e+04 
       3.423824360774e-02       1.644684060223e+04 
       3.439541329565e-02       1.635416909048e+04 
       3.455340732176e-02       1.626355012930e+04 
       3.471225070954e-02       1.617291273666e+04 
       3.487196945974e-02       1.608324055430e+04 
       3.503259059993e-02       1.599167649667e+04 
       3.519414223727e-02       1.590158330029e+04 
       3.535665361465e-02       1.581241697398e+04 
       3.552015517051e-02       1.572344239388e+04 
       3.568467860261e-02       1.563245312005e+04 
       3.585025693615e-02       1.554359953732e+04 
       3.601692459643e-02       1.545510585079e+04 
       3.618471748658e-02       1.536562752901e+04 
       3.635367307070e-02       1.527725977522e+04 
       3.652383046291e-02       1.518933313877e+04 
       3.669523052276e-02       1.510161218298e+04 
       3.686791595761e-02       1.501337256877e+04 
       3.704193143254e-02       1.492582431832e+04 
       3.721732368854e-02       1.483827432051e+04 
       3.739414166964e-02       1.475134275675e+04 
       3.757243665986e-02       1.466428697507e+04 
       3.775226243084e-02       1.457635942452e+04 
       3.793367540128e-02       1.449062374884e+04 
       3.811673480913e-02       1.440343064792e+04 
       3.830150289796e-02       1.431836520404e+04 
       3.848804511882e-02       1.423166075963e+04 
       3.867643034915e-02       1.414696214357e+04 
       3.886673113053e-02       1.406012728254e+04 
       3.905902392709e-02       1.397545249114e+04 
       3.925338940703e-02       1.388972424198e+04 
       3.944991274942e-02       1.380529483643e+04 
       3.964868397923e-02       1.371991234828e+04 
       3.984979833367e-02       1.363579382086e+04 
       4.005335666341e-02       1.355050260828e+04 
       4.025946587259e-02       1.346682477214e+04 
       4.046823940233e-02       1.338267059542e+04 
       4.067979776270e-02       1.329794697652e+04 
       4.089426911927e-02       1.321377705445e+04 
       4.111178994085e-02       1.313037616451e+04 
       4.133250571608e-02       1.304694011255e+04 
       4.155657174798e-02       1.296270600192e+04 
       4.178415403632e-02       1.287920749295e+04 
       4.201543025993e-02       1.279607010997e+04 
       4.225059087226e-02       1.271281328021e+04 
       4.248984032629e-02       1.262995571597e+04 
       4.273339844693e-02       1.254638258619e+04 
       4.298150197258e-02       1.246396529155e+04 
       4.323440629087e-02       1.238000875521e+04 
       4.349238739819e-02       1.229688107229e+04 
       4.375574411771e-02       1.221462252486e+04 
       4.402480061717e-02       1.213086318069e+04 
       4.429990927507e-02       1.204782971533e+04 
       4.458145395350e-02       1.196457950371e+04 
       4.486985374708e-02       1.188187179876e+04 
       4.516556729125e-02       1.179781918112e+04 
       4.546909773038e-02       1.171426841069e+04 
       4.578099846704e-02       1.163082492332e+04 
       4.610187983987e-02       1.154753954463e+04 
       4.643241690995e-02       1.146330787933e+04 
       4.677335857567e-02       1.137858180897e+04 
       4.712553828724e-02       1.129411384229e+04 
       4.748988669540e-02       1.120899470444e+04 
       4.786744664975e-02       1.112382125900e+04 
       4.825939106415e-02       1.103797894579e+04 
       4.866704429674e-02       1.095180356797e+04 
       4.909190785755e-02       1.086516676608e+04 
       4.953569146765e-02       1.077768945110e+04 
       5.000035076274e-02       1.068924896569e+04 
       5.048813327488e-02       1.059976698495e+04 
       5.100163475567e-02       1.050951163217e+04 
       5.154386843724e-02       1.041797080484e+04 
       5.211835047246e-02       1.032522893202e+04 
       5.272920554136e-02       1.023059888037e+04 
       5.338129739719e-02       1.013387349394e+04 
       5.408038979065e-02       1.003456575980e+04 
       5.483334337931e-02       9.932285684604e+03 
       5.564835310748e-02       9.826404702094e+03 
       5.653522654488e-02       9.715268981581e+03 
       5.750569379286e-02       9.598105178447e+03 
       5.857371846395e-02       9.472901432064e+03 
