# dimensionless total [l(l+1)/2pi] C_l's
# for l=2 to 2500, i.e. number of multipoles equal to 2499
#
# -> if you prefer output in CAMB/HealPix/LensPix units/order, set 'format' to 'camb' in input file
# -> if you don't want to see such a header, set 'headers' to 'no' in input file
# -> for CMB lensing (phi), these are C_l^phi-phi for the lensing potential.
#    Remember the conversion factors:
#    C_l^dd (deflection) = l(l+1) C_l^phi-phi
#    C_l^gg (shear/convergence) = 1/4 (l(l+1))^2 C_l^phi-phi
#
# 1:l     2:TT                     3:EE                     4:TE                     5:BB                     6:phiphi                 7:TPhi                   8:Ephi               
    2       2.636271982834e-10       7.457230012803e-15       6.753319923486e-13       0.000000000000e+00       1.085549239906e-08       9.820299873511e-10      -2.219473001329e-12 
    3       2.225354854872e-10       1.129206110073e-14       8.115066804376e-13       0.000000000000e+00       6.592208225950e-09       6.613637970147e-10      -1.709618548634e-12 
    4       1.932796756530e-10       1.242004769685e-14       8.151345557584e-13       0.000000000000e+00       4.529864752073e-09       4.817000580712e-10      -1.215274213570e-12 
    5       1.728698497249e-10       1.175953866282e-14       7.586867973850e-13       0.000000000000e+00       3.341729258234e-09       3.686807958892e-10      -8.367097446197e-13 
    6       1.582757089083e-10       1.055389319142e-14       6.898467903483e-13       0.000000000000e+00       2.580649702706e-09       2.917591029665e-10      -5.615613925082e-13 
    7       1.475584643163e-10       9.590363523120e-15       6.339150437481e-13       0.000000000000e+00       2.058507897303e-09       2.365644550522e-10      -3.721710569949e-13 
    8       1.395279454571e-10       9.112474990927e-15       5.969223936888e-13       0.000000000000e+00       1.682090651609e-09       1.954733185711e-10      -2.561815514193e-13 
    9       1.334330086285e-10       9.087271991914e-15       5.757072836019e-13       0.000000000000e+00       1.400717288652e-09       1.640113467461e-10      -2.000886278204e-13 
   10       1.287396626502e-10       9.437684800114e-15       5.659149919298e-13       0.000000000000e+00       1.184647018448e-09       1.393788183337e-10      -1.859716116637e-13 
   11       1.251403859359e-10       1.012066707529e-14       5.635519299657e-13       0.000000000000e+00       9.994428235516e-10       1.198741416184e-10      -1.970475907114e-13 
   12       1.223428811243e-10       1.110726915243e-14       5.647936474337e-13       0.000000000000e+00       8.653973453688e-10       1.037788550151e-10      -2.119289885148e-13 
   13       1.201474418302e-10       1.235278474103e-14       5.667426603157e-13       0.000000000000e+00       7.560023477739e-10       9.047893067976e-11      -2.223811840371e-13 
   14       1.184805979292e-10       1.379671954420e-14       5.673745088111e-13       0.000000000000e+00       6.655124825044e-10       7.943255341213e-11      -2.213693537293e-13 
   15       1.172281946008e-10       1.538185998581e-14       5.655364379546e-13       0.000000000000e+00       5.898039280193e-10       7.019243225960e-11      -2.092818592664e-13 
   16       1.162770469044e-10       1.706781863182e-14       5.611277444629e-13       0.000000000000e+00       5.259527495277e-10       6.219889055849e-11      -1.912727329966e-13 
   17       1.156119603249e-10       1.883003254985e-14       5.544426218176e-13       0.000000000000e+00       4.715285011740e-10       5.544673025717e-11      -1.698669092551e-13 
   18       1.151686889693e-10       2.065090086609e-14       5.459607507074e-13       0.000000000000e+00       4.245981722253e-10       4.966627098527e-11      -1.497204055090e-13 
   19       1.149424504760e-10       2.251645852384e-14       5.361594327024e-13       0.000000000000e+00       3.843298040570e-10       4.470072115196e-11      -1.335057109188e-13 
   20       1.148765487372e-10       2.441247306453e-14       5.252536081542e-13       0.000000000000e+00       3.490766776848e-10       4.034020895392e-11      -1.225675227401e-13 
   21       1.149607290444e-10       2.633063454760e-14       5.133532420681e-13       0.000000000000e+00       3.182401441427e-10       3.652595170773e-11      -1.163443352712e-13 
   22       1.151597543679e-10       2.826500169655e-14       5.003056753883e-13       0.000000000000e+00       2.910460312343e-10       3.318282440982e-11      -1.131258628331e-13 
   23       1.154772155248e-10       3.021132681717e-14       4.858149668989e-13       0.000000000000e+00       2.670706310067e-10       3.024602126696e-11      -1.112265524614e-13 
   24       1.159002916307e-10       3.216642673556e-14       4.694269734083e-13       0.000000000000e+00       2.457016072349e-10       2.762025132057e-11      -1.087965066667e-13 
   25       1.164204067736e-10       3.412733178636e-14       4.510731596307e-13       0.000000000000e+00       2.266633768219e-10       2.528343463264e-11      -1.050658847502e-13 
   26       1.170125561763e-10       3.609185811363e-14       4.307399293683e-13       0.000000000000e+00       2.095940871840e-10       2.321083301640e-11      -9.968869440587e-14 
   27       1.176775835122e-10       3.805928826209e-14       4.084658850146e-13       0.000000000000e+00       1.942691352346e-10       2.136805665180e-11      -9.306501428739e-14 
   28       1.184117942265e-10       4.002960028590e-14       3.842966019942e-13       0.000000000000e+00       1.804007333224e-10       1.970557346326e-11      -8.591348157202e-14 
   29       1.192198281058e-10       4.200126862607e-14       3.584802820884e-13       0.000000000000e+00       1.679018081849e-10       1.821150320552e-11      -7.892291490970e-14 
   30       1.200930780177e-10       4.397253590540e-14       3.313113590570e-13       0.000000000000e+00       1.566203449974e-10       1.687086368675e-11      -7.288073686993e-14 
   31       1.210103016123e-10       4.594174971982e-14       3.030327709898e-13       0.000000000000e+00       1.463050402357e-10       1.565659433485e-11      -6.848674910643e-14 
   32       1.219743895313e-10       4.790668987636e-14       2.737286518580e-13       0.000000000000e+00       1.368942247553e-10       1.456001534436e-11      -6.549956735170e-14 
   33       1.229863706092e-10       4.986495834066e-14       2.433748402637e-13       0.000000000000e+00       1.283155611272e-10       1.356939347620e-11      -6.324919801960e-14 
   34       1.240394692357e-10       5.181422217646e-14       2.118968276252e-13       0.000000000000e+00       1.204409494615e-10       1.266627834820e-11      -6.100956070518e-14 
   35       1.251367231669e-10       5.375253318780e-14       1.793114131523e-13       0.000000000000e+00       1.132223789090e-10       1.184426150783e-11      -5.859049666794e-14 
   36       1.262776346145e-10       5.567809347322e-14       1.456221085779e-13       0.000000000000e+00       1.065925293464e-10       1.109545973117e-11      -5.594339960452e-14 
   37       1.274564657785e-10       5.758918485448e-14       1.108146432297e-13       0.000000000000e+00       1.004544889735e-10       1.040844307068e-11      -5.303849941778e-14 
   38       1.286756846398e-10       5.948426119515e-14       7.499119507791e-14       0.000000000000e+00       9.478815887539e-11       9.780270517401e-12      -4.998329249860e-14 
   39       1.299356683473e-10       6.136186664014e-14       3.827352549417e-14       0.000000000000e+00       8.957259901957e-11       9.207680235573e-12      -4.694423882039e-14 
   40       1.312302778025e-10       6.322059690277e-14       7.632612129659e-16       0.000000000000e+00       8.475388961876e-11       8.683434608993e-12      -4.411710867377e-14 
   41       1.325504632233e-10       6.505918220287e-14      -3.745444989517e-14       0.000000000000e+00       8.026308517917e-11       8.198578235536e-12      -4.167763112167e-14 
   42       1.338980441087e-10       6.687679483403e-14      -7.629142061559e-14       0.000000000000e+00       7.608396404060e-11       7.750908501580e-12      -3.961030443722e-14 
   43       1.352753287087e-10       6.867282331834e-14      -1.156745736831e-13       0.000000000000e+00       7.220253177084e-11       7.338693543205e-12      -3.782652743103e-14 
   44       1.366809033940e-10       7.044678277941e-14      -1.555544718733e-13       0.000000000000e+00       6.858672124304e-11       6.958157602788e-12      -3.620884649987e-14 
   45       1.381116365255e-10       7.219827042229e-14      -1.958966828134e-13       0.000000000000e+00       6.519718670602e-11       6.604673429158e-12      -3.463977300841e-14 
   46       1.395702374628e-10       7.392682672138e-14      -2.366468716241e-13       0.000000000000e+00       6.202688525440e-11       6.277140381552e-12      -3.310302931042e-14 
   47       1.410593560961e-10       7.563202506715e-14      -2.777595480740e-13       0.000000000000e+00       5.907090966415e-11       5.974643931275e-12      -3.160930831663e-14 
   48       1.425792095952e-10       7.731350154252e-14      -3.192101323066e-13       0.000000000000e+00       5.631459969203e-11       5.695137915410e-12      -3.016802138655e-14 
   49       1.441273646791e-10       7.897094811176e-14      -3.609968263633e-13       0.000000000000e+00       5.373282354747e-11       5.435362916781e-12      -2.878715019605e-14 
   50       1.457001782683e-10       8.060411419548e-14      -4.031249889197e-13       0.000000000000e+00       5.129727003010e-11       5.191725733787e-12      -2.747441275640e-14 
   51       1.472980855807e-10       8.221282770121e-14      -4.455509174752e-13       0.000000000000e+00       4.900232541173e-11       4.963408578730e-12      -2.624147826439e-14 
   52       1.489213710699e-10       8.379696792795e-14      -4.882260415163e-13       0.000000000000e+00       4.684497852155e-11       4.749962750993e-12      -2.510064026971e-14 
   53       1.505684991239e-10       8.535645141486e-14      -5.311141088737e-13       0.000000000000e+00       4.481709052942e-11       4.550385780685e-12      -2.406351827356e-14 
   54       1.522359743762e-10       8.689122552480e-14      -5.741922338674e-13       0.000000000000e+00       4.290505339017e-11       4.363085036368e-12      -2.314097143866e-14 
   55       1.539199958120e-10       8.840130476213e-14      -6.174430361865e-13       0.000000000000e+00       4.109376101291e-11       4.186327954002e-12      -2.233832805027e-14 
   56       1.556222202918e-10       8.988690499068e-14      -6.608263694548e-13       0.000000000000e+00       3.938046049068e-11       4.019807070893e-12      -2.163988378847e-14 
   57       1.573451861356e-10       9.134833131947e-14      -7.043024053420e-13       0.000000000000e+00       3.776374355204e-11       3.863400035846e-12      -2.102040135027e-14 
   58       1.590905764915e-10       9.278593364178e-14      -7.478406132674e-13       0.000000000000e+00       3.623936556015e-11       3.716699997592e-12      -2.044919435791e-14 
   59       1.608591495359e-10       9.420010188363e-14      -7.914204614302e-13       0.000000000000e+00       3.480007198536e-11       3.578998171785e-12      -1.988985856569e-14 
   60       1.626506686726e-10       9.559126125232e-14      -8.350321178406e-13       0.000000000000e+00       3.343542487777e-11       3.449266407984e-12      -1.930000306681e-14 
   61       1.644644681597e-10       9.695980017677e-14      -8.786685250587e-13       0.000000000000e+00       3.213461482295e-11       3.326422349773e-12      -1.864124208924e-14 
   62       1.663014562584e-10       9.830584597683e-14      -9.222979597189e-13       0.000000000000e+00       3.089602694108e-11       3.210233903908e-12      -1.791239927194e-14 
   63       1.681624398969e-10       9.962943017980e-14      -9.658865296564e-13       0.000000000000e+00       2.971952392334e-11       3.100587777722e-12      -1.712331338526e-14 
   64       1.700474802636e-10       1.009305446347e-13      -1.009406675550e-12       0.000000000000e+00       2.860357278162e-11       2.997216501827e-12      -1.628529105690e-14 
   65       1.719558431689e-10       1.022091346250e-13      -1.052837598246e-12       0.000000000000e+00       2.754516604825e-11       2.899689963575e-12      -1.541116353944e-14 
   66       1.738859494062e-10       1.034650919817e-13      -1.096165686085e-12       0.000000000000e+00       2.653974297568e-11       2.807406940509e-12      -1.451534347790e-14 
   67       1.758353251132e-10       1.046982481963e-13      -1.139384942223e-12       0.000000000000e+00       2.558111073626e-11       2.719586633823e-12      -1.361388167724e-14 
   68       1.778015322064e-10       1.059084688098e-13      -1.182489952011e-12       0.000000000000e+00       2.466305772769e-11       2.635461160305e-12      -1.272225130170e-14 
   69       1.797852895662e-10       1.070959741851e-13      -1.225452175183e-12       0.000000000000e+00       2.378474923271e-11       2.554917245617e-12      -1.184805221536e-14 
   70       1.817878980192e-10       1.082610716581e-13      -1.268239595435e-12       0.000000000000e+00       2.294628852519e-11       2.477969942714e-12      -1.099692353642e-14 
   71       1.838102920893e-10       1.094040557921e-13      -1.310823987623e-12       0.000000000000e+00       2.214708661231e-11       2.404569910519e-12      -1.017468407661e-14 
   72       1.858530154257e-10       1.105252040810e-13      -1.353181154298e-12       0.000000000000e+00       2.138582671057e-11       2.334600086988e-12      -9.387330986841e-15 
   73       1.879161962293e-10       1.116247726521e-13      -1.395291162239e-12       0.000000000000e+00       2.066042872195e-11       2.267872362163e-12      -8.641038402788e-15 
   74       1.899995226800e-10       1.127029919698e-13      -1.437138578985e-12       0.000000000000e+00       1.996801370990e-11       2.204124251235e-12      -7.942156090473e-15 
   75       1.921022183640e-10       1.137600625381e-13      -1.478712709373e-12       0.000000000000e+00       1.930486837552e-11       2.143015567602e-12      -7.297208091872e-15 
   76       1.942234475775e-10       1.147961261088e-13      -1.520003310147e-12       0.000000000000e+00       1.866734999430e-11       2.084211624163e-12      -6.711057250155e-15 
   77       1.963636708847e-10       1.158111827432e-13      -1.560986308766e-12       0.000000000000e+00       1.805487026620e-11       2.027657707537e-12      -6.181015363621e-15 
   78       1.985234932569e-10       1.168051507491e-13      -1.601635897992e-12       0.000000000000e+00       1.746739357323e-11       1.973348843704e-12      -5.701651539249e-15 
   79       2.007032406221e-10       1.177778851130e-13      -1.641928968246e-12       0.000000000000e+00       1.690452881343e-11       1.921246182562e-12      -5.266492696371e-15 
   80       2.029029441067e-10       1.187291727005e-13      -1.681845251426e-12       0.000000000000e+00       1.636551316181e-11       1.871275445318e-12      -4.867984602150e-15 
   81       2.051223242779e-10       1.196587274570e-13      -1.721367464707e-12       0.000000000000e+00       1.584919583142e-11       1.823325371880e-12      -4.497452907049e-15 
   82       2.073607753856e-10       1.205661856091e-13      -1.760481454351e-12       0.000000000000e+00       1.535402183424e-11       1.777246168248e-12      -4.145064180302e-15 
   83       2.096173496045e-10       1.214511008646e-13      -1.799176339516e-12       0.000000000000e+00       1.487801574228e-11       1.732847953902e-12      -3.799786945388e-15 
   84       2.118911091482e-10       1.223130282119e-13      -1.837440988183e-12       0.000000000000e+00       1.441925453868e-11       1.689946426434e-12      -3.451915804415e-15 
   85       2.141822841980e-10       1.231518017907e-13      -1.875252458690e-12       0.000000000000e+00       1.397741180944e-11       1.648511954411e-12      -3.101209947757e-15 
   86       2.164912789355e-10       1.239672945011e-13      -1.912585896801e-12       0.000000000000e+00       1.355244096277e-11       1.608542469236e-12      -2.750038670453e-15 
   87       2.188183113034e-10       1.247593302400e-13      -1.949418114176e-12       0.000000000000e+00       1.314410099901e-11       1.570017697631e-12      -2.400942293886e-15 
   88       2.211634034309e-10       1.255276805912e-13      -1.985727670526e-12       0.000000000000e+00       1.275194849151e-11       1.532898402593e-12      -2.056636278376e-15 
   89       2.235263720578e-10       1.262720615149e-13      -2.021494955783e-12       0.000000000000e+00       1.237532956771e-11       1.497125624353e-12      -1.720015335780e-15 
   90       2.259068189599e-10       1.269921300378e-13      -2.056702272256e-12       0.000000000000e+00       1.201337189009e-11       1.462619921334e-12      -1.394157542085e-15 
   91       2.283041213734e-10       1.276874809428e-13      -2.091333916799e-12       0.000000000000e+00       1.166497663717e-11       1.429280611108e-12      -1.082328450007e-15 
   92       2.307174224197e-10       1.283576434589e-13      -2.125376262969e-12       0.000000000000e+00       1.132881048454e-11       1.396985011355e-12      -7.879852015881e-16 
   93       2.331459038620e-10       1.290021537409e-13      -2.158815086249e-12       0.000000000000e+00       1.100361854827e-11       1.365617954099e-12      -5.139968724293e-16 
   94       2.355896720991e-10       1.296207919688e-13      -2.191626901069e-12       0.000000000000e+00       1.068923447268e-11       1.335167054809e-12      -2.601624373460e-16 
   95       2.380489883414e-10       1.302133749541e-13      -2.223786466718e-12       0.000000000000e+00       1.038570814044e-11       1.305640435056e-12      -2.532537337278e-17 
   96       2.405239925291e-10       1.307796812876e-13      -2.255269471919e-12       0.000000000000e+00       1.009299468139e-11       1.277037387048e-12       1.918823904738e-16 
   97       2.430146976323e-10       1.313194490696e-13      -2.286052579152e-12       0.000000000000e+00       9.810950859347e-12       1.249348030141e-12       3.930471192591e-16 
   98       2.455209839518e-10       1.318323736402e-13      -2.316113468970e-12       0.000000000000e+00       9.539331458924e-12       1.222552967357e-12       5.799799181938e-16 
   99       2.480425934186e-10       1.323181053094e-13      -2.345430884314e-12       0.000000000000e+00       9.277785672304e-12       1.196622941896e-12       7.547233786969e-16 
  100       2.505791238950e-10       1.327762470874e-13      -2.373984674838e-12       0.000000000000e+00       9.025853486041e-12       1.171518493650e-12       9.195582244593e-16 
  101       2.531300234745e-10       1.332063524147e-13      -2.401755841223e-12       0.000000000000e+00       8.782962067853e-12       1.147189615721e-12       1.077009957507e-15 
  102       2.556945847819e-10       1.336079228922e-13      -2.428726579497e-12       0.000000000000e+00       8.548422153416e-12       1.123575410929e-12       1.229855504265e-15 
  103       2.582719392741e-10       1.339804060117e-13      -2.454880325355e-12       0.000000000000e+00       8.321424433159e-12       1.100603748330e-12       1.381129861620e-15 
  104       2.608612634660e-10       1.343232892756e-13      -2.480199882052e-12       0.000000000000e+00       8.101221202851e-12       1.078208672462e-12       1.533449151870e-15 
  105       2.634624416126e-10       1.346364019263e-13      -2.504661420624e-12       0.000000000000e+00       7.887707043885e-12       1.056386049233e-12       1.686861327589e-15 
  106       2.660754823368e-10       1.349196499344e-13      -2.528239748036e-12       0.000000000000e+00       7.680910213554e-12       1.035144831621e-12       1.840716166869e-15 
  107       2.687003113666e-10       1.351729220523e-13      -2.550910174205e-12       0.000000000000e+00       7.480812827662e-12       1.014489831581e-12       1.994322082140e-15 
