# Matter power spectrum P(k) at redshift z=0
# for k=5.25106e-06 to 1.64096 h/Mpc,
# number of wavenumbers equal to 531
#    1:k (h/Mpc)              2:P (Mpc/h)^3        
       5.251063378143e-06       4.166582286727e+02 
       1.467853233525e-05       1.119849734367e+03 
       2.412034316405e-05       1.805310910499e+03 
       3.359008388768e-05       2.481790492021e+03 
       4.310144708664e-05       3.153123476292e+03 
       5.266829540782e-05       3.821701016031e+03 
       6.230472809830e-05       4.489285271226e+03 
       7.202514905719e-05       5.157309374385e+03 
       8.184433690214e-05       5.827015339045e+03 
       9.177751755164e-05       6.499527056401e+03 
       1.018404398305e-04       7.175893013969e+03 
       1.120494546112e-04       7.857113293356e+03 
       1.224215980094e-04       8.544157718455e+03 
       1.329746791536e-04       9.237978690367e+03 
       1.437273730451e-04       9.939520653621e+03 
       1.546993190185e-04       1.064972731854e+04 
       1.659112252881e-04       1.136954731470e+04 
       1.773849800347e-04       1.209993868936e+04 
       1.891437694335e-04       1.284187250442e+04 
       2.012122029416e-04       1.359633568216e+04 
       2.136164460554e-04       1.436433317771e+04 
       2.263843605910e-04       1.514688950296e+04 
       2.395456523325e-04       1.594504958242e+04 
       2.531320256202e-04       1.675987888215e+04 
       2.671773440913e-04       1.759246271384e+04 
       2.817177963323e-04       1.844390457502e+04 
       2.967920646255e-04       1.931532334102e+04 
       3.124414942586e-04       2.020784907320e+04 
       3.287102599957e-04       2.112261714969e+04 
       3.456455252537e-04       2.206076036105e+04 
       3.632975882902e-04       2.302339854422e+04 
       3.817200082705e-04       2.401162525999e+04 
       4.009697024641e-04       2.502649096016e+04 
       4.211070040482e-04       2.606898205417e+04 
       4.421956681505e-04       2.713999529161e+04 
       4.643028119293e-04       2.824030695339e+04 
       4.874987728632e-04       2.937053651990e+04 
       5.118568681931e-04       3.053110479101e+04 
       5.374530379566e-04       3.172218688869e+04 
       5.643653546064e-04       3.294366117564e+04 
       5.926733842306e-04       3.419505582865e+04 
       6.224573882840e-04       3.547549552118e+04 
       6.537973608558e-04       3.678365125668e+04 
       6.867719050178e-04       3.811769670349e+04 
       7.214569626783e-04       3.947527431703e+04 
       7.579244251721e-04       4.085347413329e+04 
       7.962406656772e-04       4.224882759323e+04 
       8.364650481305e-04       4.365731842836e+04 
       8.786484788745e-04       4.507441269946e+04 
       9.228320748979e-04       4.649511029173e+04 
       9.690460244411e-04       4.791401971965e+04 
       1.017308710649e-03       4.932545597271e+04 
       1.067626156484e-03       5.072355705532e+04 
       1.119991830006e-03       5.210241019685e+04 
       1.174386825215e-03       5.345617619710e+04 
       1.230780407799e-03       5.477920227488e+04 
       1.289130890298e-03       5.606611938661e+04 
       1.349386780633e-03       5.731192535348e+04 
       1.411488133568e-03       5.851205645611e+04 
       1.475368027896e-03       5.966244495696e+04 
       1.540954092706e-03       6.075956248889e+04 
       1.608170012999e-03       6.180048459339e+04 
       1.676936956426e-03       6.278287759999e+04 
       1.747174876937e-03       6.370502330326e+04 
       1.818803665806e-03       6.456581048166e+04 
       1.891744134249e-03       6.536469970674e+04 
       1.965918823650e-03       6.610166471941e+04 
       2.041252648712e-03       6.677711941054e+04 
       2.117673385522e-03       6.739184043405e+04 
       2.195112020738e-03       6.794689453410e+04 
       2.273502980302e-03       6.844357874551e+04 
       2.352784256596e-03       6.888337886196e+04 
       2.432897452342e-03       6.926792954963e+04 
       2.513787758138e-03       6.959904869094e+04 
       2.595403878677e-03       6.987866646616e+04 
       2.677697920665e-03       7.010880676552e+04 
       2.760625253420e-03       7.029155318219e+04 
       2.844144351174e-03       7.042900861356e+04 
       2.928216624391e-03       7.052325813097e+04 
       3.012806245838e-03       7.057634192463e+04 
       3.097879975856e-03       7.059024184945e+04 
       3.183406990176e-03       7.056686173355e+04 
       3.269358712698e-03       7.050806164964e+04 
       3.355708654960e-03       7.041569677348e+04 
       3.442432263414e-03       7.029154952420e+04 
       3.529506775190e-03       7.013735527608e+04 
       3.616911082676e-03       6.995479160130e+04 
       3.704625606992e-03       6.974546533332e+04 
       3.792632180221e-03       6.951090213312e+04 
       3.880913936160e-03       6.925254173768e+04 
       3.969455209219e-03       6.897174024833e+04 
       4.058241441066e-03       6.866977906991e+04 
       4.147259094566e-03       6.834787730893e+04 
       4.236495574546e-03       6.800720242716e+04 
       4.325939154935e-03       6.764887573694e+04 
       4.415578911793e-03       6.727397225517e+04 
       4.505404661810e-03       6.688351617082e+04 
       4.595406905842e-03       6.647847435570e+04 
       4.685576777077e-03       6.605975104634e+04 
       4.775905993468e-03       6.562818661295e+04 
       4.866386814068e-03       6.518456231065e+04 
       4.957011998947e-03       6.472961060002e+04 
       5.047774772399e-03       6.426402870778e+04 
       5.138668789134e-03       6.378849194537e+04 
       5.229688103234e-03       6.330366369274e+04 
       5.320827139609e-03       6.281020110853e+04 
       5.412080667754e-03       6.230875328459e+04 
       5.503443777607e-03       6.179993778970e+04 
       5.594911857324e-03       6.128426263576e+04 
       5.686480572815e-03       6.076210102145e+04 
       5.778145848885e-03       6.023383886138e+04 
       5.869903851843e-03       5.969992686825e+04 
       5.961750973467e-03       5.916081094590e+04 
       6.053683816186e-03       5.861690323047e+04 
       6.145699179410e-03       5.806858579297e+04 
       6.237794046882e-03       5.751621721085e+04 
       6.329965574986e-03       5.696013644961e+04 
       6.422211081929e-03       5.640066504765e+04 
       6.514528037716e-03       5.583810853045e+04 
       6.606914054871e-03       5.527275753350e+04 
       6.699366879823e-03       5.470488876185e+04 
       6.791884384926e-03       5.413476583633e+04 
       6.884464561041e-03       5.356264010399e+04 
       6.977105510653e-03       5.298875139586e+04 
       7.069805441471e-03       5.241332874767e+04 
       7.162562660477e-03       5.183659102074e+04 
       7.255375568391e-03       5.125874756208e+04 
       7.348242654514e-03       5.067999877071e+04 
       7.441162491932e-03       5.010053665156e+04 
       7.534133733037e-03       4.952054530953e+04 
       7.627155105360e-03       4.894020144024e+04 
       7.720225407677e-03       4.835967479193e+04 
       7.813343506382e-03       4.777912855799e+04 
       7.906508332093e-03       4.719871978771e+04 
       7.999718876487e-03       4.661859975996e+04 
       8.092974189343e-03       4.603891430665e+04 
       8.186273375772e-03       4.545980415397e+04 
       8.279615593637e-03       4.488140520762e+04 
       8.373000051128e-03       4.430384884246e+04 
       8.466426004503e-03       4.372726216849e+04 
       8.559892755967e-03       4.315176825292e+04 
       8.653399651693e-03       4.257748638156e+04 
       8.746946079960e-03       4.200453224508e+04 
       8.840531469421e-03       4.143301815212e+04 
       8.934155287469e-03       4.086305317764e+04 
       9.027817038717e-03       4.029474341877e+04 
       9.121516263567e-03       3.972819204227e+04 
       9.215252536875e-03       3.916349952147e+04 
       9.309025466696e-03       3.860076373983e+04 
       9.402834693112e-03       3.804008010300e+04 
       9.496679887134e-03       3.748154169144e+04 
       9.590560749676e-03       3.692523934491e+04 
       9.684477010591e-03       3.637126177198e+04 
       9.778428427773e-03       3.581969563863e+04 
       9.872414786317e-03       3.527062566105e+04 
       9.966435897733e-03       3.472413468954e+04 
       1.006049159921e-02       3.418030374805e+04 
       1.015458175295e-02       3.363921216198e+04 
       1.024870624551e-02       3.310093755626e+04 
       1.034286498720e-02       3.256555595791e+04 
       1.043705791158e-02       3.203314181018e+04 
       1.053128497489e-02       3.150376805633e+04 
       1.062554615564e-02       3.097750614917e+04 
       1.071984145410e-02       3.045442611093e+04 
       1.081417089197e-02       2.993459656180e+04 
       1.090853451194e-02       2.941808472889e+04 
       1.100293237743e-02       2.890495653853e+04 
       1.109736457219e-02       2.839527654009e+04 
       1.119183120009e-02       2.788910803636e+04 
       1.128633238484e-02       2.738651302041e+04 
       1.138086826974e-02       2.688755221845e+04 
       1.147543901752e-02       2.639228513812e+04 
       1.157004481011e-02       2.590077001826e+04 
       1.166468584855e-02       2.541306391010e+04 
       1.175936235276e-02       2.492922260440e+04 
       1.185407456154e-02       2.444930070523e+04 
       1.194882273238e-02       2.397335162384e+04 
       1.204360714144e-02       2.350142755290e+04 
       1.213842808348e-02       2.303357949504e+04 
       1.223328587184e-02       2.256985724566e+04 
       1.232818083841e-02       2.211030942760e+04 
       1.242311333363e-02       2.165498344402e+04 
       1.251808372652e-02       2.120392550457e+04 
       1.261309240472e-02       2.075718064752e+04 
       1.270813977453e-02       2.031479266295e+04 
       1.280322626099e-02       1.987680417175e+04 
       1.289835230796e-02       1.944325656909e+04 
       1.299351837824e-02       1.901419002792e+04 
       1.308872495364e-02       1.858964352983e+04 
       1.318397253519e-02       1.816965479985e+04 
       1.327926164320e-02       1.775426034368e+04 
       1.337459281750e-02       1.734349545532e+04 
       1.346996661758e-02       1.693739415229e+04 
       1.356538362278e-02       1.653598922339e+04 
       1.366084443253e-02       1.613931225523e+04 
       1.375634966652e-02       1.574739370233e+04 
       1.385189996502e-02       1.536026127872e+04 
       1.394749598904e-02       1.497794461290e+04 
       1.404313842067e-02       1.460046922734e+04 
       1.413882796334e-02       1.422786033632e+04 
       1.423456534209e-02       1.386014183666e+04 
       1.433035130395e-02       1.349733631456e+04 
       1.442618661819e-02       1.313946506301e+04 
       1.452207207672e-02       1.278654806906e+04 
       1.461800849446e-02       1.243860399440e+04 
       1.471399670964e-02       1.209565020470e+04 
       1.481003758429e-02       1.175770273004e+04 
       1.490613200457e-02       1.142477628852e+04 
       1.500228088125e-02       1.109688427903e+04 
       1.509848515012e-02       1.077403875855e+04 
       1.519474577244e-02       1.045625044933e+04 
       1.529106373546e-02       1.014352876918e+04 
       1.538744005289e-02       9.835881769266e+03 
       1.548387576539e-02       9.533316173691e+03 
       1.558037194114e-02       9.235837377930e+03 
       1.567692967636e-02       8.943449434027e+03 
       1.577355009591e-02       8.656155058819e+03 
       1.587023435384e-02       8.373955619131e+03 
       1.596698363404e-02       8.096851181008e+03 
       1.606379915085e-02       7.824840434952e+03 
       1.616068214971e-02       7.557920758549e+03 
       1.625763390782e-02       7.296088189114e+03 
       1.635465573489e-02       7.039337461274e+03 
       1.645174897381e-02       6.787661957635e+03 
       1.654891500140e-02       6.541053758518e+03 
       1.664615522920e-02       6.299503625684e+03 
       1.674347110424e-02       6.063001009272e+03 
       1.684086410990e-02       5.831534039086e+03 
       1.693833576669e-02       5.605089582352e+03 
       1.703588763319e-02       5.383653181198e+03 
       1.713352130693e-02       5.167209099994e+03 
       1.723123842530e-02       4.955740338526e+03 
       1.732904066655e-02       4.749228616726e+03 
       1.742692975076e-02       4.547654388049e+03 
       1.752490744090e-02       4.350996854184e+03 
       1.762297554385e-02       4.159233986805e+03 
       1.772113591151e-02       3.972342512542e+03 
       1.781939044196e-02       3.790297931047e+03 
       1.791774108059e-02       3.613074535940e+03 
       1.801618982135e-02       3.440645423442e+03 
       1.811473870796e-02       3.272982488705e+03 
       1.821338983522e-02       3.110056452131e+03 
       1.831214535036e-02       2.951836874985e+03 
       1.841100745438e-02       2.798292159151e+03 
       1.850997840351e-02       2.649389566030e+03 
       1.860906051067e-02       2.505095231336e+03 
       1.870825614699e-02       2.365374182376e+03 
       1.880756774340e-02       2.230190343344e+03 
       1.890699779224e-02       2.099506553784e+03 
       1.900654884895e-02       1.973284587330e+03 
       1.910622353384e-02       1.851485162883e+03 
       1.920602453385e-02       1.734067961675e+03 
       1.930595460448e-02       1.620991638816e+03 
       1.940601657165e-02       1.512213845621e+03 
       1.950621333376e-02       1.407691242338e+03 
       1.960654786373e-02       1.307379516893e+03 
       1.970702321118e-02       1.211233396587e+03 
       1.980764250463e-02       1.119206672443e+03 
       1.990840895382e-02       1.031252207964e+03 
       2.000932585207e-02       9.473219658248e+02 
       2.011039657881e-02       8.673670163184e+02 
       2.021162460211e-02       7.913375634776e+02 
       2.031301348137e-02       7.191829549505e+02 
       2.041456687007e-02       6.508517040931e+02 
       2.051628851863e-02       5.862915074845e+02 
       2.061818227743e-02       5.254492651613e+02 
       2.072025209985e-02       4.682710936318e+02 
       2.082250204553e-02       4.147023487313e+02 
       2.092493628368e-02       3.646876401708e+02 
       2.102755909656e-02       3.181708539528e+02 
       2.113037488307e-02       2.750951662747e+02 
       2.123338816252e-02       2.354030661468e+02 
       2.133660357852e-02       1.990363679573e+02 
       2.144002590301e-02       1.659362358916e+02 
       2.154366004053e-02       1.360431976239e+02 
       2.164751103256e-02       1.092971633579e+02 
       2.175158406214e-02       8.563744413316e+01 
       2.185588445862e-02       6.500276993007e+01 
       2.196041770260e-02       4.733130614330e+01 
       2.206518943116e-02       3.256067141843e+01 
       2.217020544320e-02       2.062795501599e+01 
       2.227547170512e-02       1.146973363121e+01 
       2.238099435664e-02       5.022088670120e+00 
       2.248677971699e-02       1.220621968014e+00 
       2.259283429129e-02       4.727186332885e-04 
       2.269916477721e-02       1.296333208793e+00 
       2.280577807201e-02       5.042464594076e+00 
       2.291268127981e-02       1.117271219037e+01 
       2.301988171924e-02       1.962052033041e+01 
       2.312738693145e-02       3.031894778340e+01 
       2.323520468846e-02       4.320068093234e+01 
       2.334334300194e-02       5.819804821324e+01 
       2.345181013236e-02       7.524303347087e+01 
       2.356061459864e-02       9.426728946586e+01 
       2.366976518824e-02       1.152021490058e+02 
       2.377927096769e-02       1.379786389235e+02 
       2.388914129375e-02       1.625274894911e+02 
       2.399938582503e-02       1.887791468279e+02 
       2.411001453426e-02       2.166637820495e+02 
       2.422103772111e-02       2.461113035468e+02 
       2.433246602578e-02       2.770513626939e+02 
       2.444431044318e-02       3.094133655992e+02 
       2.455658233794e-02       3.431264780071e+02 
       2.466929346015e-02       3.781196348218e+02 
       2.478245596201e-02       4.143215471652e+02 
       2.489608241532e-02       4.516607049303e+02 
       2.501018582997e-02       4.900653856011e+02 
       2.512477967345e-02       5.294636515079e+02 
       2.523987789141e-02       5.697833654202e+02 
       2.535549492943e-02       6.109521809542e+02 
       2.547164575601e-02       6.528975538811e+02 
       2.558834588693e-02       6.955467317503e+02 
       2.570561141095e-02       7.388267634631e+02 
       2.582345901713e-02       7.826644951818e+02 
       2.594190602373e-02       8.269865688946e+02 
       2.606097040886e-02       8.717194188652e+02 
       2.618067084302e-02       9.167892611980e+02 
       2.630102672370e-02       9.621220977851e+02 
       2.642205821205e-02       1.007643707987e+03 
       2.654378627199e-02       1.053279643071e+03 
       2.666623271182e-02       1.098955201515e+03 
       2.678942022842e-02       1.144595446768e+03 
       2.691337245457e-02       1.190125166341e+03 
       2.703811400929e-02       1.235468889237e+03 
       2.716367055160e-02       1.280550845548e+03 
       2.729006883806e-02       1.325294969404e+03 
       2.741733678420e-02       1.369624874973e+03 
       2.754550353041e-02       1.413463842922e+03 
       2.767459951238e-02       1.456734800032e+03 
       2.780465653681e-02       1.499360292921e+03 
       2.793570786256e-02       1.541262480011e+03 
       2.806778828795e-02       1.582363099371e+03 
       2.820093424457e-02       1.622583447506e+03 
       2.833518389836e-02       1.661844345492e+03 
       2.847057725850e-02       1.700066136665e+03 
       2.860715629503e-02       1.737168628870e+03 
       2.874496506572e-02       1.773071093602e+03 
       2.888404985347e-02       1.807692207140e+03 
       2.902445931497e-02       1.840950058704e+03 
       2.916624464193e-02       1.872762083192e+03 
       2.930945973602e-02       1.903045061387e+03 
       2.945416139908e-02       1.931715054436e+03 
       2.960040954010e-02       1.958687416653e+03 
       2.974826740079e-02       1.983876735271e+03 
       2.989780180177e-02       2.007196818625e+03 
       3.004908341162e-02       2.028560653141e+03 
       3.020218704143e-02       2.047880409453e+03 
       3.035719196768e-02       2.065067404238e+03 
       3.051418228683e-02       2.080032096610e+03 
       3.067324730524e-02       2.092684065512e+03 
       3.083448196892e-02       2.102932044898e+03 
       3.099798733777e-02       2.110683912828e+03 
       3.116387110998e-02       2.115846720015e+03 
       3.133224820308e-02       2.118326733568e+03 
       3.150324139891e-02       2.118029521310e+03 
       3.167698206101e-02       2.114860009099e+03 
       3.185361093434e-02       2.108722605066e+03 
       3.203327903873e-02       2.099521366475e+03 
       3.221614866917e-02       2.087160187960e+03 
       3.240239451857e-02       2.071543052195e+03 
       3.259220494098e-02       2.052574337970e+03 
       3.278578337651e-02       2.030159230406e+03 
       3.298334996282e-02       2.004204198130e+03 
       3.318514336287e-02       1.974617603797e+03 
       3.339142284359e-02       1.941310455423e+03 
       3.360247064738e-02       1.904197320487e+03 
       3.381859470568e-02       1.863197465559e+03 
       3.404013175441e-02       1.818236246517e+03 
       3.426745092259e-02       1.769246805763e+03 
       3.450095788059e-02       1.716172176178e+03 
       3.474109965291e-02       1.658967846219e+03 
       3.498837022291e-02       1.597604917157e+03 
       3.524331708581e-02       1.532073966419e+03 
       3.550654894157e-02       1.462389848187e+03 
       3.577874476444e-02       1.388597535594e+03 
       3.606066454223e-02       1.310779379422e+03 
       3.635316205039e-02       1.229064057509e+03 
       3.665720011673e-02       1.143637607911e+03 
       3.697386894885e-02       1.054757107473e+03 
       3.730440824382e-02       9.627675669448e+02 
       3.765023398826e-02       8.681228258383e+02 
