# dimensionless total [l(l+1)/2pi] C_l's
# for l=2 to 2500, i.e. number of multipoles equal to 2499
#
# -> if you prefer output in CAMB/HealPix/LensPix units/order, set 'format' to 'camb' in input file
# -> if you don't want to see such a header, set 'headers' to 'no' in input file
# -> for CMB lensing (phi), these are C_l^phi-phi for the lensing potential.
#    Remember the conversion factors:
#    C_l^dd (deflection) = l(l+1) C_l^phi-phi
#    C_l^gg (shear/convergence) = 1/4 (l(l+1))^2 C_l^phi-phi
#
# 1:l     2:TT                     3:EE                     4:TE                     5:BB                     6:phiphi                 7:TPhi                   8:Ephi               
    2       1.483741169193e-10       4.676395713152e-15       3.913687352923e-13       0.000000000000e+00       8.813391517704e-09       4.824538272786e-10      -2.012153928911e-12 
    3       1.402350107995e-10       6.268195768102e-15       4.528471062470e-13       0.000000000000e+00       5.414354265876e-09       3.422125822663e-10      -1.548866432044e-12 
    4       1.324989677286e-10       5.815363943361e-15       4.408861237736e-13       0.000000000000e+00       3.762219741520e-09       2.592179558563e-10      -1.043084158691e-12 
    5       1.266191086381e-10       4.358012569324e-15       3.970318467826e-13       0.000000000000e+00       2.807741176470e-09       2.048178270719e-10      -6.143043924081e-13 
    6       1.224777800013e-10       2.935677789252e-15       3.449806718578e-13       0.000000000000e+00       2.193157901624e-09       1.666941056746e-10      -2.954624690109e-13 
    7       1.196542266664e-10       2.009862057420e-15       2.984299752790e-13       0.000000000000e+00       1.769466674424e-09       1.386975063468e-10      -8.890891639050e-14 
    8       1.178576603382e-10       1.539766965638e-15       2.633056114452e-13       0.000000000000e+00       1.462513609189e-09       1.174592180272e-10       2.010356603157e-14 
    9       1.168275020829e-10       1.316005122449e-15       2.409118535576e-13       0.000000000000e+00       1.231491730226e-09       1.009844592444e-10       5.518381802723e-14 
   10       1.163200412773e-10       1.194629670711e-15       2.300323923762e-13       0.000000000000e+00       1.052403975102e-09       8.794318242397e-11       4.281676836291e-14 
   11       1.162744400681e-10       1.143107497015e-15       2.280186956539e-13       0.000000000000e+00       8.873346165377e-10       7.773045768345e-11       7.519993371727e-15 
   12       1.165286615274e-10       1.179295827596e-15       2.318384529763e-13       0.000000000000e+00       7.753089728734e-10       6.872987762096e-11      -3.175808899321e-14 
   13       1.170290386105e-10       1.310774747232e-15       2.388779152513e-13       0.000000000000e+00       6.833480639167e-10       6.142720605351e-11      -6.168241250341e-14 
   14       1.177381786706e-10       1.521049463211e-15       2.471091218480e-13       0.000000000000e+00       6.068407800348e-10       5.509129694907e-11      -7.824368419292e-14 
   15       1.186290752054e-10       1.786741721340e-15       2.552659267078e-13       0.000000000000e+00       5.424426208060e-10       4.975147119815e-11      -8.063991274896e-14 
   16       1.196258236971e-10       2.093665517158e-15       2.626969339910e-13       0.000000000000e+00       4.876903192717e-10       4.514409628357e-11      -7.271832763932e-14 
   17       1.207583531313e-10       2.438123115015e-15       2.691738617911e-13       0.000000000000e+00       4.407230041060e-10       4.112020101127e-11      -5.979235000058e-14 
   18       1.219649722728e-10       2.819198447818e-15       2.749917844475e-13       0.000000000000e+00       3.999587810932e-10       3.761840095258e-11      -4.696742859370e-14 
   19       1.232591294197e-10       3.233433750135e-15       2.804297638687e-13       0.000000000000e+00       3.647506760689e-10       3.458415077178e-11      -3.710302004885e-14 
   20       1.246311389072e-10       3.675704417128e-15       2.856601561224e-13       0.000000000000e+00       3.337415053388e-10       3.188375722967e-11      -3.217152711748e-14 
   21       1.260809706825e-10       4.143398807108e-15       2.907244323434e-13       0.000000000000e+00       3.064442421686e-10       2.946881770879e-11      -3.176741240066e-14 
   22       1.275794968618e-10       4.634833890894e-15       2.955205179465e-13       0.000000000000e+00       2.822059106851e-10       2.728450334385e-11      -3.423957110407e-14 
   23       1.291350788514e-10       5.149708987709e-15       2.997762957801e-13       0.000000000000e+00       2.606934047877e-10       2.532767109701e-11      -3.784007597915e-14 
   24       1.307445950280e-10       5.688283057381e-15       3.031029665277e-13       0.000000000000e+00       2.414095551208e-10       2.358518243583e-11      -4.063495125518e-14 
   25       1.324073415573e-10       6.250316472114e-15       3.052510673166e-13       0.000000000000e+00       2.241275733264e-10       2.202722783441e-11      -4.168761827676e-14 
   26       1.341073925369e-10       6.835843433845e-15       3.060039511809e-13       0.000000000000e+00       2.085346615029e-10       2.060509667325e-11      -4.052351873533e-14 
   27       1.358440609691e-10       7.446452082398e-15       3.052977099494e-13       0.000000000000e+00       1.944437870171e-10       1.930667232265e-11      -3.765648833453e-14 
   28       1.376114626983e-10       8.084318227969e-15       3.031343221583e-13       0.000000000000e+00       1.816120548340e-10       1.812217686080e-11      -3.400458360073e-14 
   29       1.394188425637e-10       8.750373898021e-15       2.996223778328e-13       0.000000000000e+00       1.699739996733e-10       1.704819496749e-11      -3.024180704257e-14 
   30       1.412673860567e-10       9.445298740954e-15       2.949262233547e-13       0.000000000000e+00       1.594047280344e-10       1.607260979511e-11      -2.708905490037e-14 
   31       1.431470120307e-10       1.016979683093e-14       2.892036977357e-13       0.000000000000e+00       1.496887234620e-10       1.517428542129e-11      -2.522596118912e-14 
   32       1.450616103194e-10       1.092410298879e-14       2.824600924146e-13       0.000000000000e+00       1.407758344300e-10       1.434582210832e-11      -2.454187532142e-14 
   33       1.470104179970e-10       1.170829794457e-14       2.746350589264e-13       0.000000000000e+00       1.326030353767e-10       1.357753849935e-11      -2.459206512291e-14 
   34       1.489850289847e-10       1.252244309096e-14       2.656454747243e-13       0.000000000000e+00       1.250559559992e-10       1.285601027893e-11      -2.485676029605e-14 
   35       1.509868712078e-10       1.336660433254e-14       2.554159264056e-13       0.000000000000e+00       1.180959760748e-10       1.218252210316e-11      -2.501198800094e-14 
   36       1.530139677854e-10       1.424083803614e-14       2.438539332384e-13       0.000000000000e+00       1.116672671650e-10       1.156024000938e-11      -2.474251133832e-14 
   37       1.550599815193e-10       1.514518764750e-14       2.308685432185e-13       0.000000000000e+00       1.056861740859e-10       1.098917912660e-11      -2.377376008088e-14 
   38       1.571300702928e-10       1.607969012967e-14       2.164709209384e-13       0.000000000000e+00       1.001372659055e-10       1.046682579672e-11      -2.224164377181e-14 
   39       1.592290593728e-10       1.704437355305e-14       2.007052036384e-13       0.000000000000e+00       9.500296497945e-11       9.987139178136e-12      -2.044741797162e-14 
   40       1.613564593932e-10       1.803925687354e-14       1.836213297980e-13       0.000000000000e+00       9.023433004241e-11       9.539953582859e-12      -1.876461911830e-14 
   41       1.635087347030e-10       1.906434587678e-14       1.652665266725e-13       0.000000000000e+00       8.576811141399e-11       9.114141346047e-12      -1.754514961250e-14 
   42       1.656883828829e-10       2.011961659631e-14       1.456569028639e-13       0.000000000000e+00       8.159117112403e-11       8.709148523466e-12      -1.678966532753e-14 
   43       1.678968402200e-10       2.120502847666e-14       1.247962841846e-13       0.000000000000e+00       7.769242861522e-11       8.326648173806e-12      -1.637765896489e-14 
   44       1.701315175713e-10       2.232052994040e-14       1.026829849355e-13       0.000000000000e+00       7.404352919572e-11       7.967271041054e-12      -1.615461310188e-14 
   45       1.723880560272e-10       2.346605288075e-14       7.930998809388e-14       0.000000000000e+00       7.060897390624e-11       7.630750534342e-12      -1.596495723090e-14 
   46       1.746687972568e-10       2.464149225062e-14       5.466736157064e-14       0.000000000000e+00       6.738336111444e-11       7.316635213957e-12      -1.576778826656e-14 
   47       1.769761963770e-10       2.584672176130e-14       2.873925672124e-14       0.000000000000e+00       6.436293944095e-11       7.023626273702e-12      -1.555206447217e-14 
   48       1.793101808134e-10       2.708160011813e-14       1.502326641555e-15       0.000000000000e+00       6.153437518658e-11       6.749275359404e-12      -1.530434977504e-14 
   49       1.816679206000e-10       2.834597147333e-14      -2.707498788936e-14       0.000000000000e+00       5.887403973254e-11       6.489902592862e-12      -1.500867220832e-14 
   50       1.840457681357e-10       2.963962453532e-14      -5.702475526432e-14       0.000000000000e+00       5.635512657760e-11       6.241646685896e-12      -1.465506886406e-14 
   51       1.864462310777e-10       3.096215576136e-14      -8.835232199360e-14       0.000000000000e+00       5.397293313315e-11       6.004141503482e-12      -1.426828355241e-14 
   52       1.888724951109e-10       3.231306981279e-14      -1.210573864893e-13       0.000000000000e+00       5.172520961317e-11       5.777695761471e-12      -1.388661410563e-14 
   53       1.913262953365e-10       3.369181619548e-14      -1.551420806502e-13       0.000000000000e+00       4.960459319924e-11       5.562220138713e-12      -1.355416756764e-14 
   54       1.938077886638e-10       3.509778776704e-14      -1.906112878156e-13       0.000000000000e+00       4.759826389420e-11       5.357198575818e-12      -1.332112741281e-14 
   55       1.963163757896e-10       3.653038630366e-14      -2.274693358496e-13       0.000000000000e+00       4.569185570498e-11       5.161937400895e-12      -1.322908191676e-14 
   56       1.988536985932e-10       3.798924169442e-14      -2.657083859801e-13       0.000000000000e+00       4.388311639740e-11       4.976450931606e-12      -1.326212898433e-14 
   57       2.014211638435e-10       3.947404458485e-14      -3.053177164191e-13       0.000000000000e+00       4.217103831842e-11       4.800745603212e-12      -1.338409276594e-14 
   58       2.040189702127e-10       4.098448518362e-14      -3.462872673912e-13       0.000000000000e+00       4.055172590170e-11       4.634543929176e-12      -1.355209033130e-14 
   59       2.066460176653e-10       4.252025438252e-14      -3.886078178589e-13       0.000000000000e+00       3.901821731329e-11       4.477266624359e-12      -1.371621685525e-14 
   60       2.092998168476e-10       4.408104487637e-14      -4.322711622474e-13       0.000000000000e+00       3.756030609744e-11       4.328014728212e-12      -1.381923080344e-14 
   61       2.119777096500e-10       4.566643211974e-14      -4.772679399509e-13       0.000000000000e+00       3.616737532328e-11       4.185821234032e-12      -1.380984995601e-14 
   62       2.146810560328e-10       4.727548343917e-14      -5.235801547375e-13       0.000000000000e+00       3.483804689782e-11       4.050512420443e-12      -1.368683916254e-14 
   63       2.174118304645e-10       4.890706277001e-14      -5.711872822043e-13       0.000000000000e+00       3.357239150897e-11       3.922009012170e-12      -1.346430494982e-14 
   64       2.201713456391e-10       5.055994043800e-14      -6.200685690541e-13       0.000000000000e+00       3.236902611650e-11       3.800064593359e-12      -1.315907265227e-14 
   65       2.229602034671e-10       5.223279046644e-14      -6.702031353440e-13       0.000000000000e+00       3.122503118215e-11       3.684256282001e-12      -1.279080345924e-14 
   66       2.257782460676e-10       5.392418788348e-14      -7.215700767358e-13       0.000000000000e+00       3.013586789975e-11       3.573975404349e-12      -1.238211146241e-14 
   67       2.286245067600e-10       5.563260602934e-14      -7.741485667450e-13       0.000000000000e+00       2.909529542535e-11       3.468418169334e-12      -1.195868070313e-14 
   68       2.314979009066e-10       5.735655075118e-14      -8.279173667960e-13       0.000000000000e+00       2.809703759196e-11       3.366792596136e-12      -1.154425647418e-14 
   69       2.343995705401e-10       5.909500058206e-14      -8.828530125485e-13       0.000000000000e+00       2.714036023704e-11       3.269008831134e-12      -1.114417907250e-14 
   70       2.373309289616e-10       6.084705132621e-14      -9.389314420701e-13       0.000000000000e+00       2.622548048947e-11       3.175112597148e-12      -1.075870849027e-14 
   71       2.402929333780e-10       6.261178785682e-14      -9.961286410567e-13       0.000000000000e+00       2.535187993255e-11       3.085077589710e-12      -1.038784115489e-14 
   72       2.432860548155e-10       6.438828492423e-14      -1.054420729937e-12       0.000000000000e+00       2.451826657797e-11       2.998801682252e-12      -1.003129588304e-14 
   73       2.463102480337e-10       6.617560796416e-14      -1.113784050974e-12       0.000000000000e+00       2.372253683978e-11       2.916103131303e-12      -9.688499834860e-15 
   74       2.493649214388e-10       6.797281390588e-14      -1.174195255375e-12       0.000000000000e+00       2.296173750837e-11       2.836716781670e-12      -9.358574468012e-15 
   75       2.524489069980e-10       6.977895198042e-14      -1.235631390386e-12       0.000000000000e+00       2.223202772445e-11       2.760290271631e-12      -9.040321491839e-15 
   76       2.555610403635e-10       7.159298738915e-14      -1.298067610477e-12       0.000000000000e+00       2.152963234921e-11       2.686476863825e-12      -8.732752431271e-15 
   77       2.587020898857e-10       7.341355445306e-14      -1.361469636467e-12       0.000000000000e+00       2.085398684196e-11       2.615241869797e-12      -8.436819854535e-15 
   78       2.618731263382e-10       7.523915970825e-14      -1.425800073140e-12       0.000000000000e+00       2.020509944492e-11       2.546605468649e-12      -8.153977791375e-15 
   79       2.650749266251e-10       7.706825429111e-14      -1.491020700948e-12       0.000000000000e+00       1.958259325261e-11       2.480549254416e-12      -7.885663278204e-15 
   80       2.683079562070e-10       7.889923316467e-14      -1.557092514392e-12       0.000000000000e+00       1.898568851523e-11       2.417014422636e-12      -7.633293459384e-15 
   81       2.715723515276e-10       8.073043434505e-14      -1.623975760403e-12       0.000000000000e+00       1.841318494199e-11       2.355899956936e-12      -7.398262688499e-15 
   82       2.748679024408e-10       8.256013812780e-14      -1.691629976733e-12       0.000000000000e+00       1.786344400451e-11       2.297060815605e-12      -7.181939629636e-15 
   83       2.781940346366e-10       8.438656631432e-14      -1.760014030329e-12       0.000000000000e+00       1.733437124011e-11       2.240306118170e-12      -6.985664358660e-15 
   84       2.815501202964e-10       8.620795042818e-14      -1.829085795568e-12       0.000000000000e+00       1.682392523850e-11       2.185447131010e-12      -6.810248757570e-15 
   85       2.849365077226e-10       8.802275105211e-14      -1.898801043566e-12       0.000000000000e+00       1.633178031559e-11       2.132454336565e-12      -6.654388884155e-15 
   86       2.883536309732e-10       8.982947360317e-14      -1.969114438253e-12       0.000000000000e+00       1.585790831141e-11       2.081323199117e-12      -6.515982868469e-15 
   87       2.918016849311e-10       9.162660295589e-14      -2.039979912018e-12       0.000000000000e+00       1.540206769956e-11       2.032025718834e-12      -6.392593137702e-15 
   88       2.952806132469e-10       9.341260382823e-14      -2.111350698036e-12       0.000000000000e+00       1.496379474240e-11       1.984509455300e-12      -6.281435169443e-15 
   89       2.987900962819e-10       9.518592116746e-14      -2.183179362597e-12       0.000000000000e+00       1.454239464622e-11       1.938696551057e-12      -6.179366244946e-15 
   90       3.023295390517e-10       9.694498053599e-14      -2.255417837442e-12       0.000000000000e+00       1.413693271642e-11       1.894482755136e-12      -6.082874202385e-15 
   91       3.058980591684e-10       9.868818849736e-14      -2.328017452088e-12       0.000000000000e+00       1.374622551265e-11       1.851736446598e-12      -5.988066190122e-15 
   92       3.094944747843e-10       1.004139330020e-13      -2.400928966162e-12       0.000000000000e+00       1.336883200406e-11       1.810297658066e-12      -5.890657419963e-15 
   93       3.131176629908e-10       1.021206016276e-13      -2.474102239132e-12       0.000000000000e+00       1.300339545251e-11       1.770017268702e-12      -5.786935975108e-15 
   94       3.167677228633e-10       1.038066385996e-13      -2.547485112476e-12       0.000000000000e+00       1.264974709251e-11       1.730883446942e-12      -5.676847650852e-15 
   95       3.204449658604e-10       1.054704970999e-13      -2.621024418383e-12       0.000000000000e+00       1.230795286402e-11       1.692912507859e-12      -5.561356438881e-15 
   96       3.241495540751e-10       1.071106227992e-13      -2.694666354361e-12       0.000000000000e+00       1.197797349827e-11       1.656110018808e-12      -5.441511934934e-15 
   97       3.278814932632e-10       1.087254544880e-13      -2.768356510586e-12       0.000000000000e+00       1.165966048732e-11       1.620470374363e-12      -5.318451490209e-15 
   98       3.316406258715e-10       1.103134247073e-13      -2.842039897258e-12       0.000000000000e+00       1.135275205360e-11       1.585976371247e-12      -5.193402362764e-15 
   99       3.354266240657e-10       1.118729603800e-13      -2.915660971953e-12       0.000000000000e+00       1.105686911952e-11       1.552598783276e-12      -5.067683868923e-15 
  100       3.392389827593e-10       1.134024834417e-13      -2.989163666977e-12       0.000000000000e+00       1.077151127696e-11       1.520295936285e-12      -4.942709534682e-15 
  101       3.430770126414e-10       1.149004114713e-13      -3.062491416717e-12       0.000000000000e+00       1.049605275693e-11       1.489013283070e-12      -4.819989247108e-15 
  102       3.469398332047e-10       1.163651583226e-13      -3.135587184999e-12       0.000000000000e+00       1.022973839903e-11       1.458682978322e-12      -4.701131405750e-15 
  103       3.508263657744e-10       1.177951347550e-13      -3.208393492435e-12       0.000000000000e+00       9.971679621079e-12       1.429223453561e-12      -4.587845074038e-15 
  104       3.547355643613e-10       1.191887891647e-13      -3.280852244848e-12       0.000000000000e+00       9.721055848050e-12       1.400558652019e-12      -4.481573170225e-15 
  105       3.586671587557e-10       1.205447346868e-13      -3.352904133218e-12       0.000000000000e+00       9.477758468910e-12       1.372679608023e-12      -4.382330974251e-15 
  106       3.626209992845e-10       1.218616405192e-13      -3.424489203291e-12       0.000000000000e+00       9.241826760034e-12       1.345590432371e-12      -4.289714000500e-15 
  107       3.665968236444e-10       1.231381944141e-13      -3.495547072142e-12       0.000000000000e+00       9.013248442569e-12       1.319289188716e-12      -4.203251067094e-15 
