# dimensionless total [l(l+1)/2pi] C_l's
# for l=2 to 2500, i.e. number of multipoles equal to 2499
#
# -> if you prefer output in CAMB/HealPix/LensPix units/order, set 'format' to 'camb' in input file
# -> if you don't want to see such a header, set 'headers' to 'no' in input file
# -> for CMB lensing (phi), these are C_l^phi-phi for the lensing potential.
#    Remember the conversion factors:
#    C_l^dd (deflection) = l(l+1) C_l^phi-phi
#    C_l^gg (shear/convergence) = 1/4 (l(l+1))^2 C_l^phi-phi
#
# 1:l     2:TT                     3:EE                     4:TE                     5:BB                     6:phiphi                 7:TPhi                   8:Ephi               
    2       1.482817907250e-10       4.427988821483e-15       3.766292457334e-13       0.000000000000e+00       8.691805670330e-09       4.823727431181e-10      -1.970402373987e-12 
    3       1.401712607115e-10       5.688835363840e-15       4.234729245380e-13       0.000000000000e+00       5.415990121730e-09       3.425158065596e-10      -1.491983570785e-12 
    4       1.325414413368e-10       4.932686865944e-15       3.959237231635e-13       0.000000000000e+00       3.774639233113e-09       2.592618971437e-10      -9.782170264813e-13 
    5       1.268223647513e-10       3.300408761755e-15       3.372667220438e-13       0.000000000000e+00       2.818946355751e-09       2.047174842048e-10      -5.457242439389e-13 
    6       1.228861329813e-10       1.850093981295e-15       2.718145974818e-13       0.000000000000e+00       2.200896279398e-09       1.665026633983e-10      -2.265200040835e-13 
    7       1.203008046787e-10       9.997443778801e-16       2.136103941894e-13       0.000000000000e+00       1.773945840524e-09       1.384479729672e-10      -2.225605152910e-14 
    8       1.187725697773e-10       6.431457211571e-16       1.687922167922e-13       0.000000000000e+00       1.465476649333e-09       1.171981892890e-10       8.273511758273e-14 
    9       1.180385910653e-10       5.154811234338e-16       1.387200294748e-13       0.000000000000e+00       1.234436211420e-09       1.007468200812e-10       1.129931490540e-13 
   10       1.178424397941e-10       4.396357588447e-16       1.220050010327e-13       0.000000000000e+00       1.055808145134e-09       8.773213192557e-11       9.579794452088e-14 
   11       1.181301072145e-10       3.694260204832e-16       1.158175923725e-13       0.000000000000e+00       8.886105586414e-10       7.750824517376e-11       5.670008306764e-14 
   12       1.187302444597e-10       3.210701522486e-16       1.169517281522e-13       0.000000000000e+00       7.764729208120e-10       6.851336650247e-11       1.440263014755e-14 
   13       1.195900082507e-10       3.070052380502e-16       1.225620429376e-13       0.000000000000e+00       6.844157899823e-10       6.121288190276e-11      -1.817753532022e-14 
   14       1.206701504342e-10       3.193510046255e-16       1.304628151169e-13       0.000000000000e+00       6.078248463120e-10       5.487683617393e-11      -3.631167966435e-14 
   15       1.219457301916e-10       3.455005138237e-16       1.392449742082e-13       0.000000000000e+00       5.433533133584e-10       4.953580421086e-11      -4.005356377892e-14 
   16       1.233312998694e-10       3.823042079247e-16       1.482239202191e-13       0.000000000000e+00       4.885359840841e-10       4.492384834546e-11      -3.343988823072e-14 
   17       1.248650434011e-10       4.352694780035e-16       1.571771297803e-13       0.000000000000e+00       4.415107222087e-10       4.089497107885e-11      -2.192604138611e-14 
   18       1.264779722858e-10       5.103145202588e-16       1.662637010715e-13       0.000000000000e+00       4.006936761732e-10       3.739396218895e-11      -1.072433661202e-14 
   19       1.281826478527e-10       6.080811199311e-16       1.757267099929e-13       0.000000000000e+00       3.654394124144e-10       3.436598440630e-11      -2.672497988822e-15 
   20       1.299729258612e-10       7.267088633522e-16       1.857811984341e-13       0.000000000000e+00       3.343879133097e-10       3.167416572070e-11       3.061651133752e-16 
   21       1.318470633613e-10       8.652987938801e-16       1.964083458049e-13       0.000000000000e+00       3.070518118070e-10       2.926722581194e-11      -1.258222922762e-15 
   22       1.337728596971e-10       1.022994469294e-15       2.074202099204e-13       0.000000000000e+00       2.827780106259e-10       2.708787716724e-11      -5.570161365791e-15 
   23       1.357589539144e-10       1.200211924516e-15       2.184222664463e-13       0.000000000000e+00       2.612331661793e-10       2.513402475457e-11      -1.079248924235e-14 
   24       1.378034701192e-10       1.397541770471e-15       2.289207944140e-13       0.000000000000e+00       2.419194702536e-10       2.339469573952e-11      -1.494627628039e-14 
   25       1.399043075436e-10       1.614975064354e-15       2.386665084603e-13       0.000000000000e+00       2.246099638263e-10       2.183988548031e-11      -1.713165476649e-14 
   26       1.420435515678e-10       1.852560266426e-15       2.474773688749e-13       0.000000000000e+00       2.089915733261e-10       2.042014526084e-11      -1.696146591584e-14 
   27       1.442204688530e-10       2.112371195409e-15       2.551939946096e-13       0.000000000000e+00       1.948770947349e-10       1.912392271518e-11      -1.503388657260e-14 
   28       1.464297850792e-10       2.397096211013e-15       2.616981432179e-13       0.000000000000e+00       1.820233494141e-10       1.794239481673e-11      -1.235396362348e-14 
   29       1.486806497603e-10       2.708278362319e-15       2.670466507875e-13       0.000000000000e+00       1.703648454732e-10       1.687226391037e-11      -9.605734147589e-15 
   30       1.509740044058e-10       3.047096248174e-15       2.713934455112e-13       0.000000000000e+00       1.597765643048e-10       1.590126349285e-11      -7.499727994416e-15 
   31       1.532995779218e-10       3.414673012276e-15       2.749003755175e-13       0.000000000000e+00       1.500427185916e-10       1.500806405643e-11      -6.703694369328e-15 
   32       1.556610228103e-10       3.812029047773e-15       2.775317174355e-13       0.000000000000e+00       1.411131252605e-10       1.418498295285e-11      -7.076755933699e-15 
   33       1.580573522992e-10       4.240099404126e-15       2.791823018209e-13       0.000000000000e+00       1.329246948780e-10       1.342199069341e-11      -8.136306348869e-15 
   34       1.604799619621e-10       4.699764204183e-15       2.797285983185e-13       0.000000000000e+00       1.253629054370e-10       1.270531658763e-11      -9.329025007615e-15 
   35       1.629300653593e-10       5.191937987070e-15       2.790275637481e-13       0.000000000000e+00       1.183891038057e-10       1.203610234460e-11      -1.032822902831e-14 
   36       1.654054770217e-10       5.717502299076e-15       2.769145808548e-13       0.000000000000e+00       1.119473946414e-10       1.141744589496e-11      -1.083050488465e-14 
   37       1.678996877349e-10       6.277284948452e-15       2.732358639951e-13       0.000000000000e+00       1.059540054808e-10       1.084934110962e-11      -1.057845842813e-14 
   38       1.704177995604e-10       6.872086080580e-15       2.679643164620e-13       0.000000000000e+00       1.003935002582e-10       1.032937612153e-11      -9.720462997716e-15 
   39       1.729646413572e-10       7.502653294117e-15       2.611223188271e-13       0.000000000000e+00       9.524828820530e-11       9.851690909585e-12      -8.573231983931e-15 
   40       1.755397637146e-10       8.169669358678e-15       2.527522608118e-13       0.000000000000e+00       9.046935670419e-11       9.406365345071e-12      -7.532065386113e-15 
   41       1.781397236343e-10       8.873781514264e-15       2.428986307519e-13       0.000000000000e+00       8.599335696878e-11       8.982518841748e-12      -6.969366548040e-15 
   42       1.807672226851e-10       9.615710797956e-15       2.315443685254e-13       0.000000000000e+00       8.180714016988e-11       8.579620201279e-12      -6.878208062384e-15 
   43       1.834239706573e-10       1.039617133505e-14       2.186558260885e-13       0.000000000000e+00       7.789961604979e-11       8.199301236679e-12      -7.121312987122e-15 
   44       1.861077052586e-10       1.121583815983e-14       2.041999927363e-13       0.000000000000e+00       7.424238614990e-11       7.842149173142e-12      -7.525430310081e-15 
   45       1.888143458087e-10       1.207532477043e-14       1.881426954375e-13       0.000000000000e+00       7.079989300932e-11       7.507859092604e-12      -7.918505116802e-15 
   46       1.915461217347e-10       1.297511216632e-14       1.704428173949e-13       0.000000000000e+00       6.756673324925e-11       7.195971281295e-12      -8.259712527537e-15 
   47       1.943052247951e-10       1.391559543784e-14       1.510561640002e-13       0.000000000000e+00       6.453915561537e-11       6.905191423084e-12      -8.544493158325e-15 
   48       1.970912549842e-10       1.489709954981e-14       1.299368005739e-13       0.000000000000e+00       6.170380663909e-11       6.633082175028e-12      -8.768552123752e-15 
   49       1.999009847959e-10       1.591987629933e-14       1.070368450847e-13       0.000000000000e+00       5.903701651041e-11       6.375981698716e-12      -8.927891315187e-15 
   50       2.027304486258e-10       1.698411676610e-14       8.231056862477e-14       0.000000000000e+00       5.651193039335e-11       6.130048079730e-12      -9.023720051722e-15 
   51       2.055824264940e-10       1.808999970547e-14       5.572848987697e-14       0.000000000000e+00       5.412384116798e-11       5.894915807512e-12      -9.078683555805e-15 
   52       2.084605842104e-10       1.923765103250e-14       2.726674813420e-14       0.000000000000e+00       5.187049856229e-11       5.670890982059e-12      -9.125095308778e-15 
   53       2.113672024594e-10       2.042712721916e-14      -3.096874534625e-15       0.000000000000e+00       4.974452795534e-11       5.457884362038e-12      -9.200699318171e-15 
   54       2.143030504823e-10       2.165841298119e-14      -3.538295784730e-14       0.000000000000e+00       4.773308544739e-11       5.255382879101e-12      -9.348931966422e-15 
   55       2.172680843751e-10       2.293145290955e-14      -6.960836701057e-14       0.000000000000e+00       4.582177746079e-11       5.062691346244e-12      -9.605926142197e-15 
   56       2.202640345070e-10       2.424626086578e-14      -1.057794093602e-13       0.000000000000e+00       4.400834999325e-11       4.879793156157e-12      -9.957143146432e-15 
   57       2.232922396168e-10       2.560283371111e-14      -1.438969856754e-13       0.000000000000e+00       4.229179589721e-11       4.706653503911e-12      -1.037042586932e-14 
   58       2.263527863738e-10       2.700111877378e-14      -1.839584472479e-13       0.000000000000e+00       4.066821341000e-11       4.542950358400e-12      -1.080806345103e-14 
   59       2.294444151876e-10       2.844101285845e-14      -2.259575193721e-13       0.000000000000e+00       3.913062737448e-11       4.388056503697e-12      -1.122653659605e-14 
   60       2.325644260189e-10       2.992236125551e-14      -2.698842248356e-13       0.000000000000e+00       3.766881045981e-11       4.241021580414e-12      -1.157626288737e-14 
   61       2.357099745657e-10       3.144488198996e-14      -3.157261292338e-13       0.000000000000e+00       3.627212370834e-11       4.100835722704e-12      -1.181300699863e-14 
   62       2.388825138927e-10       3.300792093999e-14      -3.634725766422e-13       0.000000000000e+00       3.493918768973e-11       3.967330247727e-12      -1.193568034721e-14 
   63       2.420841871693e-10       3.461063974407e-14      -4.131112732457e-13       0.000000000000e+00       3.367007477333e-11       3.840448187742e-12      -1.195661264758e-14 
   64       2.453164761857e-10       3.625208241499e-14      -4.646270155238e-13       0.000000000000e+00       3.246340002223e-11       3.719971689184e-12      -1.189074885159e-14 
   65       2.485801512786e-10       3.793117197713e-14      -5.180016556821e-13       0.000000000000e+00       3.131623821476e-11       3.605512988837e-12      -1.175576458111e-14 
   66       2.518752212570e-10       3.964670710371e-14      -5.732140670827e-13       0.000000000000e+00       3.022404086625e-11       3.496505390013e-12      -1.157218156068e-14 
   67       2.552008833286e-10       4.139735875408e-14      -6.302401096751e-13       0.000000000000e+00       2.918055325056e-11       3.392194238720e-12      -1.136348305017e-14 
   68       2.585562061918e-10       4.318180404816e-14      -6.890543665299e-13       0.000000000000e+00       2.817948512796e-11       3.291833902549e-12      -1.115154844239e-14 
   69       2.619424519726e-10       4.499916690647e-14      -7.496358393106e-13       0.000000000000e+00       2.722010152203e-11       3.195345226175e-12      -1.094162481756e-14 
   70       2.653611369798e-10       4.684866106460e-14      -8.119633500548e-13       0.000000000000e+00       2.630262092035e-11       3.102775694945e-12      -1.073450360705e-14 
   71       2.688133094049e-10       4.872946088054e-14      -8.760138827166e-13       0.000000000000e+00       2.542652435844e-11       3.014101531334e-12      -1.053092778905e-14 
   72       2.722995179998e-10       5.064070148178e-14      -9.417625938941e-13       0.000000000000e+00       2.459051729317e-11       2.929223939733e-12      -1.033158760685e-14 
   73       2.758197807531e-10       5.258147891253e-14      -1.009182823557e-12       0.000000000000e+00       2.379249147625e-11       2.847965351235e-12      -1.013711628699e-14 
   74       2.793735535674e-10       5.455085028084e-14      -1.078246105773e-12       0.000000000000e+00       2.302948682767e-11       2.770065668422e-12      -9.948085757500e-15 
   75       2.829596989361e-10       5.654783390580e-14      -1.148922179438e-12       0.000000000000e+00       2.229765330915e-11       2.695178510150e-12      -9.765002366096e-15 
   76       2.865770832805e-10       5.857134259866e-14      -1.221178068808e-12       0.000000000000e+00       2.159320671245e-11       2.622959990995e-12      -9.588443624405e-15 
   77       2.902265639569e-10       6.061996913480e-14      -1.294975107822e-12       0.000000000000e+00       2.091558152258e-11       2.553362050992e-12      -9.419506693935e-15 
   78       2.939093093656e-10       6.269216174715e-14      -1.370271390119e-12       0.000000000000e+00       2.026478639731e-11       2.486386042038e-12      -9.259434284499e-15 
   79       2.976261843018e-10       6.478628631756e-14      -1.447022642882e-12       0.000000000000e+00       1.964044379913e-11       2.421993110890e-12      -9.109479516080e-15 
   80       3.013777315237e-10       6.690062515282e-14      -1.525182218489e-12       0.000000000000e+00       1.904177224969e-11       2.360102341451e-12      -8.970904528885e-15 
   81       3.051641533208e-10       6.903337576069e-14      -1.604701086166e-12       0.000000000000e+00       1.846756858431e-11       2.300588897048e-12      -8.844979093411e-15 
   82       3.089852930821e-10       7.118264962593e-14      -1.685527823642e-12       0.000000000000e+00       1.791619020648e-11       2.243282162726e-12      -8.732979220497e-15 
   83       3.128406168640e-10       7.334647098631e-14      -1.767608608802e-12       0.000000000000e+00       1.738553734230e-11       2.187963887526e-12      -8.636185771387e-15 
   84       3.167295298652e-10       7.552285274235e-14      -1.850888283286e-12       0.000000000000e+00       1.687356338440e-11       2.134422523181e-12      -8.555389405649e-15 
   85       3.206524265057e-10       7.771004132668e-14      -1.935313764176e-12       0.000000000000e+00       1.637994200304e-11       2.082630659721e-12      -8.489314173953e-15 
   86       3.246097814442e-10       7.990631037346e-14      -2.020831185221e-12       0.000000000000e+00       1.590464515620e-11       2.032593735667e-12      -8.435928826905e-15 
   87       3.286018175347e-10       8.210988726528e-14      -2.107384884701e-12       0.000000000000e+00       1.544743083342e-11       1.984295557184e-12      -8.392907697519e-15 
   88       3.326284930235e-10       8.431895320558e-14      -2.194917415101e-12       0.000000000000e+00       1.500783418577e-11       1.937697384834e-12      -8.357621014435e-15 
   89       3.366894887463e-10       8.653164329103e-14      -2.283369552775e-12       0.000000000000e+00       1.458515865576e-11       1.892737020345e-12      -8.327125215134e-15 
   90       3.407841953245e-10       8.874604658388e-14      -2.372680307617e-12       0.000000000000e+00       1.417846710730e-11       1.849327893371e-12      -8.298153259154e-15 
   91       3.449117003623e-10       9.096020618441e-14      -2.462786932729e-12       0.000000000000e+00       1.378657295564e-11       1.807358148253e-12      -8.267104941304e-15 
   92       3.490707756437e-10       9.317211930328e-14      -2.553624934094e-12       0.000000000000e+00       1.340803129727e-11       1.766689730784e-12      -8.230037204883e-15 
   93       3.532602529460e-10       9.537976531845e-14      -2.645128741207e-12       0.000000000000e+00       1.304148174196e-11       1.727193052124e-12      -8.183557470812e-15 
   94       3.574802439465e-10       9.758119461563e-14      -2.737233813362e-12       0.000000000000e+00       1.268675515662e-11       1.688858927856e-12      -8.127678356189e-15 
   95       3.617310809718e-10       9.977445330546e-14      -2.829874869507e-12       0.000000000000e+00       1.234391775045e-11       1.651701864423e-12      -8.063376393500e-15 
   96       3.660129373605e-10       1.019575568799e-13      -2.922985273986e-12       0.000000000000e+00       1.201293021615e-11       1.615725562879e-12      -7.991729943089e-15 
   97       3.703258199939e-10       1.041284906690e-13      -3.016497055291e-12       0.000000000000e+00       1.169364368762e-11       1.580922494010e-12      -7.913921901926e-15 
   98       3.746695618281e-10       1.062852102968e-13      -3.110340924796e-12       0.000000000000e+00       1.138579569768e-11       1.547273473463e-12      -7.831242412367e-15 
   99       3.790438144245e-10       1.084256421389e-13      -3.204446295505e-12       0.000000000000e+00       1.108900613570e-11       1.514747236864e-12      -7.745091570932e-15 
  100       3.834480404819e-10       1.105476837778e-13      -3.298741300788e-12       0.000000000000e+00       1.080277320538e-11       1.483300014944e-12      -7.656982137062e-15 
  101       3.878815063672e-10       1.126492044604e-13      -3.393152813132e-12       0.000000000000e+00       1.052646938234e-11       1.452875108665e-12      -7.568542241893e-15 
  102       3.923432746470e-10       1.147280455539e-13      -3.487606462872e-12       0.000000000000e+00       1.025933737193e-11       1.423402464339e-12      -7.481518097023e-15 
  103       3.968321966189e-10       1.167820210029e-13      -3.582026656942e-12       0.000000000000e+00       1.000048606683e-11       1.394798248759e-12      -7.397776703274e-15 
  104       4.013471544974e-10       1.188089725441e-13      -3.676337238506e-12       0.000000000000e+00       9.749092557637e-12       1.366984104658e-12      -7.318909267426e-15 
  105       4.058878413164e-10       1.208069428652e-13      -3.770463526967e-12       0.000000000000e+00       9.505047949607e-12       1.339948794615e-12      -7.244974605323e-15 
  106       4.104540729470e-10       1.227740267971e-13      -3.864330589760e-12       0.000000000000e+00       9.268391656444e-12       1.313694131018e-12      -7.175590250528e-15 
  107       4.150455431825e-10       1.247083196900e-13      -3.957862651537e-12       0.000000000000e+00       9.039111381359e-12       1.288215833239e-12      -7.110314929316e-15 
