# Matter power spectrum P(k) at redshift z=0
# for k=5.25106e-06 to 1.63516 h/Mpc,
# number of wavenumbers equal to 531
#    1:k (h/Mpc)              2:P (Mpc/h)^3        
       5.251063378143e-06       4.166633484940e+02 
       1.466844715085e-05       1.119124444305e+03 
       2.410013492096e-05       1.803883350775e+03 
       3.355967110391e-05       2.479673748661e+03 
       4.306070415344e-05       3.150325315429e+03 
       5.261705172017e-05       3.818226188246e+03 
       6.224276682753e-05       4.485136418689e+03 
       7.195220555490e-05       5.152487472656e+03 
       8.176009672049e-05       5.821519935691e+03 
       9.168161406183e-05       6.493356403414e+03 
       1.017324514170e-04       7.169044135973e+03 
       1.119289014159e-04       7.849582011374e+03 
       1.222879381958e-04       8.535938638628e+03 
       1.328273046567e-04       9.229065161509e+03 
       1.435656047712e-04       9.929904694148e+03 
       1.545224014519e-04       1.063939951099e+04 
       1.657183204622e-04       1.135849666423e+04 
       1.771751608200e-04       1.208815244081e+04 
       1.889160120934e-04       1.282933591116e+04 
       2.009653789071e-04       1.358303171785e+04 
       2.133493128695e-04       1.435024218069e+04 
       2.260955519768e-04       1.513198874086e+04 
       2.392336673451e-04       1.592931272269e+04 
       2.527952168513e-04       1.674327535217e+04 
       2.668139049107e-04       1.757495693236e+04 
       2.813257471701e-04       1.842545503490e+04 
       2.963692383263e-04       1.929588152199e+04 
       3.119855205800e-04       2.018735816233e+04 
       3.282185493674e-04       2.110101054769e+04 
       3.451152519811e-04       2.203795995320e+04 
       3.627256734601e-04       2.299931271714e+04 
       3.811031027163e-04       2.398614664875e+04 
       4.003041702568e-04       2.499949391387e+04 
       4.203889071166e-04       2.604031981166e+04 
       4.414207527774e-04       2.710949686047e+04 
       4.634664980355e-04       2.820777368231e+04 
       4.865961471518e-04       2.933573834426e+04 
       5.108826823853e-04       3.049377611083e+04 
       5.364017134769e-04       3.168202200527e+04 
       5.632309951558e-04       3.290030916853e+04 
       5.914497976858e-04       3.414811470355e+04 
       6.211381192517e-04       3.542450541187e+04 
       6.523757349554e-04       3.672808643600e+04 
       6.852410855486e-04       3.805695616497e+04 
       7.198100197209e-04       3.940867073814e+04 
       7.561544164011e-04       4.078022111486e+04 
       7.943407272505e-04       4.216802515897e+04 
       8.344284930443e-04       4.356793683070e+04 
       8.764688992351e-04       4.497527460332e+04 
       9.205034437858e-04       4.638487145510e+04 
       9.665627925517e-04       4.779114848698e+04 
       1.014665892808e-03       4.918821237607e+04 
       1.064819403503e-03       5.056997307197e+04 
       1.117017482168e-03       5.193027347251e+04 
       1.171241944898e-03       5.326301984163e+04 
       1.227462790169e-03       5.456230280216e+04 
       1.285639052558e-03       5.582250359144e+04 
       1.345719931653e-03       5.703838546801e+04 
       1.407646126899e-03       5.820517190700e+04 
       1.471351301874e-03       5.931860955029e+04 
       1.536763601703e-03       6.037500973443e+04 
       1.603807153832e-03       6.137131823022e+04 
       1.672403493569e-03       6.230509610532e+04 
       1.742472869612e-03       6.317454300585e+04 
       1.813935399344e-03       6.397848869359e+04 
       1.886712057411e-03       6.471636076366e+04 
       1.960725492930e-03       6.538813076096e+04 
       2.035900680091e-03       6.599424584090e+04 
       2.112165413677e-03       6.653555415707e+04 
       2.189450665398e-03       6.701323167062e+04 
       2.267690819192e-03       6.742871783823e+04 
       2.346823804293e-03       6.778366617493e+04 
       2.426791144298e-03       6.807989686938e+04 
       2.507537939135e-03       6.831941761139e+04 
       2.589012794994e-03       6.850435872633e+04 
       2.671167715301e-03       6.863694844426e+04 
       2.753957963792e-03       6.871948289672e+04 
       2.837341908774e-03       6.875428870154e+04 
       2.921280855961e-03       6.874368691981e+04 
       3.005738875705e-03       6.868996391522e+04 
       3.090682629113e-03       6.859535278888e+04 
       3.176081196458e-03       6.846201114633e+04 
       3.261905910359e-03       6.829203332511e+04 
       3.348130195486e-03       6.808750965421e+04 
       3.434729415954e-03       6.785044285642e+04 
       3.521680731093e-03       6.758278051439e+04 
       3.608962959985e-03       6.728640821859e+04 
       3.696556454817e-03       6.696313963645e+04 
       3.784442982973e-03       6.661470673462e+04 
       3.872605617601e-03       6.624275314658e+04 
       3.961028636328e-03       6.584883272078e+04 
       4.049697427702e-03       6.543441443626e+04 
       4.138598404921e-03       6.500089207721e+04 
       4.227718926407e-03       6.454959447355e+04 
       4.317047222727e-03       6.408179279266e+04 
       4.406572329444e-03       6.359870311021e+04 
       4.496284025420e-03       6.310148471530e+04 
       4.586172776173e-03       6.259123517918e+04 
       4.676229681879e-03       6.206898514014e+04 
       4.766446429640e-03       6.153569580132e+04 
       4.856815249669e-03       6.099226175047e+04 
       4.947328875071e-03       6.043951946760e+04 
       5.037980504908e-03       5.987825997663e+04 
       5.128763770281e-03       5.930924208374e+04 
       5.219672703160e-03       5.873320296905e+04 
       5.310701707740e-03       5.815086449109e+04 
       5.401845534095e-03       5.756293244520e+04 
       5.493099253946e-03       5.697007955836e+04 
       5.584458238355e-03       5.637288280230e+04 
       5.675918137173e-03       5.577178705211e+04 
       5.767474860116e-03       5.516722322933e+04 
       5.859124559303e-03       5.455967331791e+04 
       5.950863613155e-03       5.394961375295e+04 
       6.042688611527e-03       5.333748508695e+04 
       6.134596341976e-03       5.272369415356e+04 
       6.226583777069e-03       5.210862016262e+04 
       6.318648062642e-03       5.149261869363e+04 
       6.410786506939e-03       5.087602394218e+04 
       6.502996570549e-03       5.025915042693e+04 
       6.595275857088e-03       4.964229425575e+04 
       6.687622104557e-03       4.902573431428e+04 
       6.780033177319e-03       4.840973315033e+04 
       6.872507058665e-03       4.779453888766e+04 
       6.965041843893e-03       4.718038520929e+04 
       7.057635733889e-03       4.656749105234e+04 
       7.150287029150e-03       4.595606231892e+04 
       7.242994124228e-03       4.534629348220e+04 
       7.335755502553e-03       4.473836806995e+04 
       7.428569731614e-03       4.413245910866e+04 
       7.521435458471e-03       4.352872957726e+04 
       7.614351405561e-03       4.292733308621e+04 
       7.707316366798e-03       4.232841448963e+04 
       7.800329203926e-03       4.173210998375e+04 
       7.893388843114e-03       4.113854805908e+04 
       7.986494271776e-03       4.054785028997e+04 
       8.079644535606e-03       3.996013033048e+04 
       8.172838735796e-03       3.937549442001e+04 
       8.266076026443e-03       3.879404373492e+04 
       8.359355612116e-03       3.821587499631e+04 
       8.452676745592e-03       3.764107964629e+04 
       8.546038725720e-03       3.706974308392e+04 
       8.639440895438e-03       3.650194574665e+04 
       8.732882639903e-03       3.593776397283e+04 
       8.826363384750e-03       3.537726972713e+04 
       8.919882594458e-03       3.482053094407e+04 
       9.013439770813e-03       3.426761189391e+04 
       9.107034451483e-03       3.371857330385e+04 
       9.200666208667e-03       3.317347251969e+04 
       9.294334647841e-03       3.263236383814e+04 
       9.388039406582e-03       3.209529855547e+04 
       9.481780153461e-03       3.156232520182e+04 
       9.575556587013e-03       3.103348969097e+04 
       9.669368434775e-03       3.050883545707e+04 
       9.763215452375e-03       2.998840360903e+04 
       9.857097422697e-03       2.947223297058e+04 
       9.951014155084e-03       2.896036035628e+04 
       1.004496548461e-02       2.845282052115e+04 
       1.013895127138e-02       2.794964637127e+04 
       1.023297139991e-02       2.745086904744e+04 
       1.032702577853e-02       2.695651797545e+04 
       1.042111433879e-02       2.646662098027e+04 
       1.051523703500e-02       2.598120430136e+04 
       1.060939384374e-02       2.550029289351e+04 
       1.070358476341e-02       2.502391008140e+04 
       1.079780981380e-02       2.455207809762e+04 
       1.089206903578e-02       2.408481773133e+04 
       1.098636249091e-02       2.362214873612e+04 
       1.108069026113e-02       2.316408948796e+04 
       1.117505244851e-02       2.271065736999e+04 
       1.126944917495e-02       2.226186874958e+04 
       1.136388058199e-02       2.181773882902e+04 
       1.145834683055e-02       2.137828186896e+04 
       1.155284810083e-02       2.094351120445e+04 
       1.164738459207e-02       2.051343919022e+04 
       1.174195652246e-02       2.008807726685e+04 
       1.183656412901e-02       1.966743605970e+04 
       1.193120766747e-02       1.925152528517e+04 
       1.202588741223e-02       1.884035373702e+04 
       1.212060365628e-02       1.843392960772e+04 
       1.221535671121e-02       1.803226007541e+04 
       1.231014690711e-02       1.763535158531e+04 
       1.240497459265e-02       1.724320984394e+04 
       1.249984013506e-02       1.685583980457e+04 
       1.259474392018e-02       1.647324557507e+04 
       1.268968635249e-02       1.609543060572e+04 
       1.278466785521e-02       1.572239758873e+04 
       1.287968887036e-02       1.535414847426e+04 
       1.297474985887e-02       1.499068451233e+04 
       1.306985130070e-02       1.463200624281e+04 
       1.316499369497e-02       1.427811343328e+04 
       1.326017756010e-02       1.392900519233e+04 
       1.335540343399e-02       1.358467997854e+04 
       1.345067187416e-02       1.324513550034e+04 
       1.354598345798e-02       1.291036871050e+04 
       1.364133878289e-02       1.258037597408e+04 
       1.373673846657e-02       1.225515308565e+04 
       1.383218314720e-02       1.193469401538e+04 
       1.392767348375e-02       1.161899442579e+04 
       1.402321015617e-02       1.130804711478e+04 
       1.411879386576e-02       1.100184502320e+04 
       1.421442533540e-02       1.070038034927e+04 
       1.431010530989e-02       1.040364454344e+04 
       1.440583455628e-02       1.011162837666e+04 
       1.450161386420e-02       9.824321977376e+03 
       1.459744404623e-02       9.541714833560e+03 
       1.469332593829e-02       9.263795595706e+03 
       1.478926039998e-02       8.990552333334e+03 
       1.488524831504e-02       8.721972362365e+03 
       1.498129059175e-02       8.458042358966e+03 
       1.507738816337e-02       8.198748309302e+03 
       1.517354198861e-02       7.944075462051e+03 
       1.526975305209e-02       7.694008418964e+03 
       1.536602236483e-02       7.448531041741e+03 
       1.546235096480e-02       7.207626575278e+03 
       1.555873991739e-02       6.971277544515e+03 
       1.565519031599e-02       6.739465687173e+03 
       1.575170328257e-02       6.512172223994e+03 
       1.584827996826e-02       6.289377567400e+03 
       1.594492155392e-02       6.071061498118e+03 
       1.604162925082e-02       5.857203085789e+03 
       1.613840430128e-02       5.647780712279e+03 
       1.623524797932e-02       5.442772055155e+03 
       1.633216159136e-02       5.242154099215e+03 
       1.642914647696e-02       5.045903344877e+03 
       1.652620400954e-02       4.853995416422e+03 
       1.662333559716e-02       4.666405232655e+03 
       1.672054268328e-02       4.483107088165e+03 
       1.681782674765e-02       4.304074757347e+03 
       1.691518930705e-02       4.129281186326e+03 
       1.701263191628e-02       3.958698624640e+03 
       1.711015616895e-02       3.792298795163e+03 
       1.720776369849e-02       3.630052696990e+03 
       1.730545617907e-02       3.471930694758e+03 
       1.740323532661e-02       3.317902508168e+03 
       1.750110289981e-02       3.167937217929e+03 
       1.759906070119e-02       3.022003228030e+03 
       1.769711057817e-02       2.880068397480e+03 
       1.779525442427e-02       2.742099887111e+03 
       1.789349418019e-02       2.608064274372e+03 
       1.799183183506e-02       2.477927517471e+03 
       1.809026942771e-02       2.351654989062e+03 
       1.818880904789e-02       2.229211439491e+03 
       1.828745283767e-02       2.110561064908e+03 
       1.838620299276e-02       1.995667414807e+03 
       1.848506176396e-02       1.884493517462e+03 
       1.858403145863e-02       1.777001822036e+03 
       1.868311444220e-02       1.673154213033e+03 
       1.878231313975e-02       1.572912045002e+03 
       1.888163003763e-02       1.476236112525e+03 
       1.898106768513e-02       1.383086688816e+03 
       1.908062869623e-02       1.293423492906e+03 
       1.918031575141e-02       1.207205760118e+03 
       1.928013159950e-02       1.124392210966e+03 
       1.938007905961e-02       1.044941069080e+03 
       1.948016102313e-02       9.688100718408e+02 
       1.958038045579e-02       8.959564813380e+02 
       1.968074039982e-02       8.263370957344e+02 
       1.978124397613e-02       7.599082462593e+02 
       1.988189438667e-02       6.966258335545e+02 
       1.998269491675e-02       6.364452901433e+02 
       2.008364893757e-02       5.793216469164e+02 
       2.018475990873e-02       5.252095144289e+02 
       2.028603138092e-02       4.740630995283e+02 
       2.038746699867e-02       4.258362007188e+02 
       2.048907050320e-02       3.804822430369e+02 
       2.059084573541e-02       3.379542834085e+02 
       2.069279663895e-02       2.982050071001e+02 
       2.079492726344e-02       2.611867333501e+02 
       2.089724176776e-02       2.268514580487e+02 
       2.099974442355e-02       1.951508418805e+02 
       2.110243961877e-02       1.660362157077e+02 
       2.120533186148e-02       1.394586138815e+02 
       2.130842578365e-02       1.153687590842e+02 
       2.141172614531e-02       9.371709981395e+01 
       2.151523783864e-02       7.445379473578e+01 
       2.161896589245e-02       5.752874209231e+01 
       2.172291547667e-02       4.289157504499e+01 
       2.182709190715e-02       3.049168951228e+01 
       2.193150065057e-02       2.027824017216e+01 
       2.203614732962e-02       1.220015694629e+01 
       2.214103772839e-02       6.206158234835e+00 
       2.224617779796e-02       2.244751958690e+00 
       2.235157366227e-02       2.642519361159e-01 
       2.245723162420e-02       2.127858143636e-01 
       2.256315817203e-02       2.038303973350e+00 
       2.266935998599e-02       5.688590520654e+00 
       2.277584394535e-02       1.111127070161e+01 
       2.288261713559e-02       1.825382077617e+01 
       2.298968685611e-02       2.706357380569e+01 
       2.309706062814e-02       3.748773334089e+01 
       2.320474620309e-02       4.947337767520e+01 
       2.331275157128e-02       6.296746772660e+01 
       2.342108497112e-02       7.791685558182e+01 
       2.352975489865e-02       9.426828802789e+01 
       2.363877011762e-02       1.119684267266e+02 
       2.374813967001e-02       1.309638348056e+02 
       2.385787288711e-02       1.512009968239e+02 
       2.396797940112e-02       1.726263223048e+02 
       2.407846915737e-02       1.951861469184e+02 
       2.418935242711e-02       2.188267421949e+02 
       2.430063982101e-02       2.434943179774e+02 
       2.441234230333e-02       2.691350234132e+02 
       2.452447120682e-02       2.956949588226e+02 
       2.463703824849e-02       3.231201687017e+02 
       2.475005554610e-02       3.513566480594e+02 
       2.486353563564e-02       3.803503715250e+02 
       2.497749148973e-02       4.100472371883e+02 
       2.509193653707e-02       4.403931071153e+02 
       2.520688468287e-02       4.713338226245e+02 
       2.532235033063e-02       5.028151572650e+02 
       2.543834840493e-02       5.347828548198e+02 
       2.555489437575e-02       5.671826228820e+02 
       2.567200428408e-02       5.999601126605e+02 
       2.578969476910e-02       6.330609148484e+02 
       2.590798309695e-02       6.664306126131e+02 
       2.602688719128e-02       7.000147037007e+02 
       2.614642566565e-02       7.337586332893e+02 
       2.626661785796e-02       7.676077849406e+02 
       2.638748386700e-02       8.015074712240e+02 
       2.650904459139e-02       8.354029263985e+02 
       2.663132177092e-02       8.692393073809e+02 
       2.675433803074e-02       9.029616729999e+02 
       2.687811692827e-02       9.365149777870e+02 
       2.700268300342e-02       9.698441024534e+02 
       2.712806183215e-02       1.002893771213e+03 
       2.725428008362e-02       1.035608589151e+03 
       2.738136558148e-02       1.067933012419e+03 
       2.750934736931e-02       1.099811355019e+03 
       2.763825578085e-02       1.131187742739e+03 
       2.776812251532e-02       1.162006124370e+03 
       2.789898071813e-02       1.192210261571e+03 
       2.803086506780e-02       1.221743669357e+03 
       2.816381186933e-02       1.250549681076e+03 
       2.829785915472e-02       1.278571341076e+03 
       2.843304679142e-02       1.305751440400e+03 
       2.856941659919e-02       1.332032480268e+03 
       2.870701247650e-02       1.357356654961e+03 
       2.884588053710e-02       1.381665836047e+03 
       2.898606925794e-02       1.404901568016e+03 
       2.912762963955e-02       1.427005000583e+03 
       2.927061538002e-02       1.447916932365e+03 
       2.941508306421e-02       1.467577749390e+03 
       2.956109236956e-02       1.485927416909e+03 
       2.970870629040e-02       1.502905463886e+03 
       2.985799138276e-02       1.518450956586e+03 
       3.000901803189e-02       1.532502532438e+03 
       3.016186074509e-02       1.544998327533e+03 
       3.031659847266e-02       1.555876007878e+03 
       3.047331496039e-02       1.565072753392e+03 
       3.063209913715e-02       1.572525274755e+03 
       3.079304554194e-02       1.578169799398e+03 
       3.095625479517e-02       1.581942105170e+03 
       3.112183411980e-02       1.583777565176e+03 
       3.128989791856e-02       1.583611189782e+03 
       3.146056841472e-02       1.581377648096e+03 
       3.163397636474e-02       1.577011385918e+03 
       3.181026185256e-02       1.570446705225e+03 
       3.198957517684e-02       1.561617903288e+03 
       3.217207784432e-02       1.550459429440e+03 
       3.235794368456e-02       1.536906071130e+03 
       3.254736010394e-02       1.520893257392e+03 
       3.274052950009e-02       1.502357313615e+03 
       3.293767086121e-02       1.481235878990e+03 
       3.313902157979e-02       1.457468364008e+03 
       3.334483951503e-02       1.430996533427e+03 
       3.355540534532e-02       1.401765214066e+03 
       3.377102525975e-02       1.369723138767e+03 
       3.399203404757e-02       1.334824034271e+03 
       3.421879865633e-02       1.297027892849e+03 
       3.445172230408e-02       1.256302532798e+03 
       3.469124924941e-02       1.212625526117e+03 
       3.493787034528e-02       1.165986553980e+03 
       3.519212953120e-02       1.116390266310e+03 
       3.545463145300e-02       1.063859828378e+03 
       3.572605044417e-02       1.008441224958e+03 
       3.600714115826e-02       9.502085855446e+02 
       3.629875121276e-02       8.892707152406e+02 
       3.660183629466e-02       8.257791246110e+02 
       3.691747829208e-02       7.599379857301e+02 
       3.724690716253e-02       6.920163258755e+02 
       3.759152743363e-02       6.223630862146e+02 
