# dimensionless total [l(l+1)/2pi] C_l's
# for l=2 to 2500, i.e. number of multipoles equal to 2499
#
# -> if you prefer output in CAMB/HealPix/LensPix units/order, set 'format' to 'camb' in input file
# -> if you don't want to see such a header, set 'headers' to 'no' in input file
# -> for CMB lensing (phi), these are C_l^phi-phi for the lensing potential.
#    Remember the conversion factors:
#    C_l^dd (deflection) = l(l+1) C_l^phi-phi
#    C_l^gg (shear/convergence) = 1/4 (l(l+1))^2 C_l^phi-phi
#
# 1:l     2:TT                     3:EE                     4:TE                     5:BB                     6:phiphi                 7:TPhi                   8:Ephi               
    2       3.539402767386e-10       3.284355873322e-14       6.511483463476e-13       0.000000000000e+00       4.085333441370e-09       8.911153278789e-10      -4.548302490460e-12 
    3       2.796548424714e-10       2.905833275689e-14       9.022765101070e-13       0.000000000000e+00       2.444960993770e-09       5.759178574106e-10      -2.485981913852e-12 
    4       2.305194184673e-10       1.665140516446e-14       8.440481430751e-13       0.000000000000e+00       1.650646817834e-09       4.048354892029e-10      -7.840005885214e-13 
    5       1.985619084731e-10       8.362509155695e-15       6.635633744542e-13       0.000000000000e+00       1.195996991347e-09       3.003153870953e-10       2.230085291184e-13 
    6       1.779028446341e-10       5.165592067072e-15       4.748865125101e-13       0.000000000000e+00       9.071691012681e-10       2.316548226252e-10       6.209795434775e-13 
    7       1.646373787681e-10       3.941165446133e-15       3.328966546600e-13       0.000000000000e+00       7.110406910558e-10       1.842427705255e-10       6.195030709975e-13 
    8       1.562182437736e-10       2.903453741865e-15       2.475180172973e-13       0.000000000000e+00       5.713300735461e-10       1.501518508800e-10       4.335795570627e-13 
    9       1.511269958776e-10       1.951720526563e-15       2.045896943419e-13       0.000000000000e+00       4.681140031901e-10       1.247579750421e-10       2.232685088293e-13 
   10       1.483379176202e-10       1.300139007989e-15       1.831315016391e-13       0.000000000000e+00       3.896475979125e-10       1.052383555440e-10       7.348628567412e-14 
   11       1.472393126794e-10       9.091258325996e-16       1.663051218302e-13       0.000000000000e+00       3.279302174773e-10       9.061101263863e-11       4.665329892418e-15 
   12       1.474305935408e-10       6.547704937194e-16       1.458283577339e-13       0.000000000000e+00       2.797711268336e-10       7.800980155903e-11      -5.885613474502e-15 
   13       1.486568988905e-10       4.860861736887e-16       1.219660542337e-13       0.000000000000e+00       2.409189795913e-10       6.783274902589e-11       9.879599378132e-15 
   14       1.506778614553e-10       3.953363045384e-16       9.995452610109e-14       0.000000000000e+00       2.091502157154e-10       5.948784387427e-11       2.556237637444e-14 
   15       1.533226336892e-10       3.689258624666e-16       8.512995391258e-14       0.000000000000e+00       1.828648032583e-10       5.257671949971e-11       2.925997578057e-14 
   16       1.565470077563e-10       3.856246059078e-16       7.971987533622e-14       0.000000000000e+00       1.608916855854e-10       4.680602238402e-11       2.186085446232e-14 
   17       1.601372751052e-10       4.239544388459e-16       8.248144994061e-14       0.000000000000e+00       1.423552012402e-10       4.193009402439e-11       1.050281232455e-14 
   18       1.640979978163e-10       4.623376878588e-16       8.981289491550e-14       0.000000000000e+00       1.265299190944e-10       3.772725121072e-11       2.402936936906e-15 
   19       1.684226703394e-10       4.919742097350e-16       9.823301111463e-14       0.000000000000e+00       1.130847177404e-10       3.411828272924e-11      -3.682400692036e-16 
   20       1.729987702503e-10       5.096527071173e-16       1.041513741187e-13       0.000000000000e+00       1.014308217157e-10       3.097298666744e-11       2.025482434660e-15 
   21       1.778252707419e-10       5.238167223197e-16       1.071634564993e-13       0.000000000000e+00       9.133572868851e-11       2.823933173350e-11       6.858434025299e-15 
   22       1.828929991903e-10       5.475975655971e-16       1.081885691488e-13       0.000000000000e+00       8.251029410043e-11       2.584336885765e-11       1.037999364134e-14 
   23       1.881745279668e-10       5.867505358333e-16       1.084755553860e-13       0.000000000000e+00       7.479940356014e-11       2.374242115590e-11       1.168595076349e-14 
   24       1.936114235029e-10       6.440118383231e-16       1.093413759819e-13       0.000000000000e+00       6.799116821460e-11       2.187613854192e-11       1.103854687160e-14 
   25       1.991989310556e-10       7.183197897358e-16       1.107506104888e-13       0.000000000000e+00       6.198198645971e-11       2.021504291711e-11       9.633503300815e-15 
   26       2.049299851470e-10       8.068418159629e-16       1.120950566096e-13       0.000000000000e+00       5.664000793349e-11       1.872324026698e-11       8.954454718055e-15 
   27       2.107953871209e-10       9.076042251947e-16       1.125152605405e-13       0.000000000000e+00       5.188385932805e-11       1.738444597179e-11       9.253908486748e-15 
   28       2.167740738812e-10       1.018667653097e-15       1.111463937104e-13       0.000000000000e+00       4.761418656183e-11       1.617868788272e-11       1.032075517009e-14 
   29       2.228661372383e-10       1.139136182174e-15       1.080581574123e-13       0.000000000000e+00       4.379821866295e-11       1.509780498255e-11       1.171102761489e-14 
   30       2.290637047173e-10       1.268195448600e-15       1.037065312016e-13       0.000000000000e+00       4.038367915723e-11       1.412557784606e-11       1.279154596058e-14 
   31       2.353469944163e-10       1.405175697338e-15       9.863522430352e-14       0.000000000000e+00       3.728710463883e-11       1.323686826416e-11       1.294831292833e-14 
   32       2.417159142406e-10       1.551207705893e-15       9.321174531777e-14       0.000000000000e+00       3.448526325807e-11       1.242560788619e-11       1.227109878139e-14 
   33       2.481673031513e-10       1.708217026430e-15       8.780308233690e-14       0.000000000000e+00       3.195193728836e-11       1.168555563508e-11       1.113245973072e-14 
   34       2.546897301361e-10       1.878214981509e-15       8.269633561481e-14       0.000000000000e+00       2.964388979802e-11       1.100549423323e-11       9.916866776216e-15 
   35       2.612791700882e-10       2.062221036652e-15       7.757120577497e-14       0.000000000000e+00       2.754433484746e-11       1.038054888450e-11       8.663056316218e-15 
   36       2.679267906526e-10       2.260973165989e-15       7.183131368586e-14       0.000000000000e+00       2.563134707632e-11       9.803848049338e-12       7.298645196507e-15 
   37       2.746191678715e-10       2.475093462583e-15       6.489656918030e-14       0.000000000000e+00       2.387412042752e-11       9.266140185300e-12       5.755707419815e-15 
   38       2.813568693146e-10       2.704689327580e-15       5.676616332071e-14       0.000000000000e+00       2.226503525529e-11       8.766399844333e-12       4.048763022386e-15 
   39       2.881407088161e-10       2.949606294176e-15       4.763907099552e-14       0.000000000000e+00       2.079629535930e-11       8.304182572179e-12       2.222437005522e-15 
   40       2.949659956150e-10       3.209519710487e-15       3.776761934328e-14       0.000000000000e+00       1.945027217811e-11       7.876493099201e-12       3.313472214853e-16 
   41       3.018252113302e-10       3.484135347841e-15       2.737131490328e-14       0.000000000000e+00       1.820499217965e-11       7.478952947482e-12      -1.560917339953e-15 
   42       3.087185474276e-10       3.773897974374e-15       1.633657827935e-14       0.000000000000e+00       1.705475796576e-11       7.110309633894e-12      -3.386710090845e-15 
   43       3.156457768820e-10       4.079493696125e-15       4.424870437734e-15       0.000000000000e+00       1.599483232117e-11       6.769010800545e-12      -5.069998716235e-15 
   44       3.226028925525e-10       4.401660335402e-15      -8.649009674970e-15       0.000000000000e+00       1.501529955841e-11       6.451804735770e-12      -6.524397103003e-15 
   45       3.295841410669e-10       4.741159151343e-15      -2.315169036042e-14       0.000000000000e+00       1.410418047563e-11       6.154786530177e-12      -7.671823560875e-15 
   46       3.365897484695e-10       5.098673111651e-15      -3.910562598966e-14       0.000000000000e+00       1.325883369455e-11       5.877221764710e-12      -8.506270891178e-15 
   47       3.436198553666e-10       5.474883122578e-15      -5.645204560627e-14       0.000000000000e+00       1.247728003063e-11       5.618640550792e-12      -9.048275518508e-15 
   48       3.506720660383e-10       5.870497622825e-15      -7.511207741190e-14       0.000000000000e+00       1.175478827263e-11       5.377695155184e-12      -9.328030240239e-15 
   49       3.577412060853e-10       6.286253677608e-15      -9.498564740225e-14       0.000000000000e+00       1.108367626815e-11       5.152095371084e-12      -9.386001409164e-15 
   50       3.648212563936e-10       6.722757341920e-15      -1.159802282827e-13       0.000000000000e+00       1.045540882684e-11       4.939262707108e-12      -9.268104580323e-15 
   51       3.719123361600e-10       7.179951128343e-15      -1.381088410327e-13       0.000000000000e+00       9.868024240653e-12       4.738652233822e-12      -9.008255794759e-15 
   52       3.790151964072e-10       7.657503880555e-15      -1.614167509832e-13       0.000000000000e+00       9.320379772657e-12       4.549949261171e-12      -8.642150877007e-15 
   53       3.861290727109e-10       8.154952554120e-15      -1.859542386779e-13       0.000000000000e+00       8.809942351497e-12       4.372375532491e-12      -8.212645562021e-15 
   54       3.932515452616e-10       8.671695746750e-15      -2.117769032285e-13       0.000000000000e+00       8.332697742437e-12       4.204658422321e-12      -7.770116605534e-15 
   55       4.003797250942e-10       9.207231310598e-15      -2.389344125188e-13       0.000000000000e+00       7.884241649940e-12       4.045403368011e-12      -7.362423946153e-15 
   56       4.075144784480e-10       9.761953134290e-15      -2.674327861905e-13       0.000000000000e+00       7.463578517966e-12       3.894390073279e-12      -7.001049822317e-15 
   57       4.146570067150e-10       1.033654096640e-14      -2.972632742916e-13       0.000000000000e+00       7.070107339159e-12       3.751544356997e-12      -6.687180398228e-15 
   58       4.218075258675e-10       1.093173664932e-14      -3.284129459363e-13       0.000000000000e+00       6.702478599820e-12       3.616548368194e-12      -6.421324639209e-15 
   59       4.289651781879e-10       1.154834715919e-14      -3.608645425369e-13       0.000000000000e+00       6.358549500220e-12       3.488825494278e-12      -6.203270268237e-15 
   60       4.361279439994e-10       1.218724764588e-14      -3.945963310367e-13       0.000000000000e+00       6.035339174923e-12       3.367525269257e-12      -6.032039722483e-15 
   61       4.432935447902e-10       1.284921354646e-14      -4.295890978448e-13       0.000000000000e+00       5.729782625291e-12       3.251757421782e-12      -5.905478752008e-15 
   62       4.504625891630e-10       1.353436601248e-14      -4.658492971504e-13       0.000000000000e+00       5.441291574640e-12       3.141389550968e-12      -5.819013946620e-15 
   63       4.576359796051e-10       1.424260683086e-14      -5.033908617005e-13       0.000000000000e+00       5.169691578127e-12       3.036402531683e-12      -5.766536897470e-15 
   64       4.648139277179e-10       1.497377602981e-14      -5.422285988123e-13       0.000000000000e+00       4.914454980858e-12       2.936650129756e-12      -5.740692349203e-15 
   65       4.719958974030e-10       1.572764949538e-14      -5.823782701751e-13       0.000000000000e+00       4.674681480741e-12       2.841851815212e-12      -5.732822500514e-15 
   66       4.791805480493e-10       1.650393658812e-14      -6.238566716508e-13       0.000000000000e+00       4.449078691336e-12       2.751585575518e-12      -5.732911304689e-15 
   67       4.863656777188e-10       1.730227775957e-14      -6.666817130760e-13       0.000000000000e+00       4.235942704710e-12       2.665280728817e-12      -5.729528770166e-15 
   68       4.935490822574e-10       1.812233663200e-14      -7.108687629779e-13       0.000000000000e+00       4.033572761955e-12       2.582370706669e-12      -5.712438412232e-15 
   69       5.007314617631e-10       1.896410323073e-14      -7.564186442784e-13       0.000000000000e+00       3.841656282027e-12       2.502803415666e-12      -5.681157630840e-15 
   70       5.079140036883e-10       1.982764819528e-14      -8.033273383862e-13       0.000000000000e+00       3.660130847933e-12       2.426621853047e-12      -5.638039799427e-15 
   71       5.150974862344e-10       2.071303378465e-14      -8.515894896223e-13       0.000000000000e+00       3.488766745037e-12       2.353810247147e-12      -5.585776775978e-15 
   72       5.222822449638e-10       2.162031390986e-14      -9.011983894948e-13       0.000000000000e+00       3.327158626404e-12       2.284290961920e-12      -5.527411314860e-15 
   73       5.294681394111e-10       2.254953416650e-14      -9.521459609739e-13       0.000000000000e+00       3.174717178155e-12       2.217921401472e-12      -5.466349478653e-15 
   74       5.366545196949e-10       2.350073186718e-14      -1.004422742766e-12       0.000000000000e+00       3.030660784816e-12       2.154490914594e-12      -5.406373049987e-15 
   75       5.438401931299e-10       2.447393607412e-14      -1.058017873591e-12       0.000000000000e+00       2.894007194667e-12       2.093717699292e-12      -5.351651943372e-15 
   76       5.510239942913e-10       2.546914096980e-14      -1.112920307671e-12       0.000000000000e+00       2.763796479756e-12       2.035317914358e-12      -5.305770620299e-15 
   77       5.582066890304e-10       2.648622029111e-14      -1.169122751870e-12       0.000000000000e+00       2.639825278833e-12       1.979234406500e-12      -5.268574932607e-15 
   78       5.653893586192e-10       2.752499727844e-14      -1.226618421277e-12       0.000000000000e+00       2.522031926850e-12       1.925444262644e-12      -5.238770164171e-15 
   79       5.725728064244e-10       2.858526944739e-14      -1.285399881050e-12       0.000000000000e+00       2.410273504790e-12       1.873888714437e-12      -5.214848337173e-15 
   80       5.797575368937e-10       2.966680807459e-14      -1.345459055939e-12       0.000000000000e+00       2.304322247899e-12       1.824471523429e-12      -5.195080405273e-15 
   81       5.869437345420e-10       3.076935768346e-14      -1.406787239807e-12       0.000000000000e+00       2.203861953927e-12       1.777057366280e-12      -5.177508446788e-15 
   82       5.941312429368e-10       3.189263553004e-14      -1.469375105149e-12       0.000000000000e+00       2.108484391360e-12       1.731470219947e-12      -5.159937857852e-15 
   83       6.013195436847e-10       3.303633108876e-14      -1.533212712620e-12       0.000000000000e+00       2.017685707650e-12       1.687491746882e-12      -5.139929545600e-15 
   84       6.085080823604e-10       3.420011951272e-14      -1.598288869073e-12       0.000000000000e+00       1.930977034818e-12       1.644913779341e-12      -5.115343788144e-15 
   85       6.156973544060e-10       3.538370570468e-14      -1.664589058552e-12       0.000000000000e+00       1.848245241647e-12       1.603709306511e-12      -5.086092507594e-15 
   86       6.228879615597e-10       3.658678664330e-14      -1.732097184165e-12       0.000000000000e+00       1.769445679298e-12       1.563887004559e-12      -5.052664523990e-15 
   87       6.300802659591e-10       3.780903778306e-14      -1.800796187662e-12       0.000000000000e+00       1.694491653473e-12       1.525438962625e-12      -5.015601159625e-15 
   88       6.372743749581e-10       3.905011277491e-14      -1.870668048008e-12       0.000000000000e+00       1.623252751929e-12       1.488339977246e-12      -4.975497703936e-15 
   89       6.444701259440e-10       4.030964318695e-14      -1.941693779956e-12       0.000000000000e+00       1.555553172003e-12       1.452546846782e-12      -4.933004878382e-15 
   90       6.516670711542e-10       4.158723822507e-14      -2.013853432617e-12       0.000000000000e+00       1.491170048121e-12       1.417997665838e-12      -4.888830301328e-15 
   91       6.588644624934e-10       4.288248445365e-14      -2.087126088038e-12       0.000000000000e+00       1.429831779324e-12       1.384611119687e-12      -4.843739952928e-15 
   92       6.660612363502e-10       4.419494551618e-14      -2.161489859769e-12       0.000000000000e+00       1.371216356782e-12       1.352285778696e-12      -4.798559640007e-15 
   93       6.732564583960e-10       4.552416789255e-14      -2.236922379354e-12       0.000000000000e+00       1.315020888075e-12       1.320925517087e-12      -4.754028681194e-15 
   94       6.804507674819e-10       4.686969976809e-14      -2.313402342591e-12       0.000000000000e+00       1.261185763909e-12       1.290521674883e-12      -4.710332608078e-15 
   95       6.876451218423e-10       4.823107449919e-14      -2.390908194273e-12       0.000000000000e+00       1.209701270718e-12       1.261082006085e-12      -4.667502563671e-15 
   96       6.948403497131e-10       4.960780463568e-14      -2.469417666193e-12       0.000000000000e+00       1.160538712080e-12       1.232605313057e-12      -4.625556263797e-15 
   97       7.020371404625e-10       5.099938172437e-14      -2.548907782414e-12       0.000000000000e+00       1.113649713545e-12       1.205081099555e-12      -4.584497433433e-15 
   98       7.092360357222e-10       5.240527611261e-14      -2.629354864540e-12       0.000000000000e+00       1.068965527458e-12       1.178489223754e-12      -4.544315243037e-15 
   99       7.164374205186e-10       5.382493675175e-14      -2.710734536987e-12       0.000000000000e+00       1.026396337786e-12       1.152799551279e-12      -4.504983744889e-15 
  100       7.236415144035e-10       5.525779100073e-14      -2.793021732253e-12       0.000000000000e+00       9.858305649361e-13       1.127971608231e-12      -4.466461309418e-15 
  101       7.308483625853e-10       5.670324442959e-14      -2.876190696186e-12       0.000000000000e+00       9.471341705860e-13       1.103954234215e-12      -4.428690061545e-15 
  102       7.380578270601e-10       5.816068062295e-14      -2.960214993258e-12       0.000000000000e+00       9.101499625048e-13       1.080685235371e-12      -4.391595317008e-15 
  103       7.452695777428e-10       5.962946098361e-14      -3.045067511832e-12       0.000000000000e+00       8.746968993782e-13       1.058091037399e-12      -4.355085018703e-15 
  104       7.524832933671e-10       6.110893587073e-14      -3.130720240368e-12       0.000000000000e+00       8.406075871999e-13       1.036103427832e-12      -4.319066353107e-15 
  105       7.596993141978e-10       6.259848015132e-14      -3.217143550248e-12       0.000000000000e+00       8.078480344230e-13       1.014713105914e-12      -4.283499369962e-15 
  106       7.669180613664e-10       6.409746210732e-14      -3.304306825449e-12       0.000000000000e+00       7.764128532871e-13       9.939227533479e-13      -4.248349588711e-15 
  107       7.741398284913e-10       6.560523245870e-14      -3.392178685669e-12       0.000000000000e+00       7.462882406851e-13       9.737304337684e-13      -4.213571094874e-15 
