# dimensionless total [l(l+1)/2pi] C_l's
# for l=2 to 2500, i.e. number of multipoles equal to 2499
#
# -> if you prefer output in CAMB/HealPix/LensPix units/order, set 'format' to 'camb' in input file
# -> if you don't want to see such a header, set 'headers' to 'no' in input file
# -> for CMB lensing (phi), these are C_l^phi-phi for the lensing potential.
#    Remember the conversion factors:
#    C_l^dd (deflection) = l(l+1) C_l^phi-phi
#    C_l^gg (shear/convergence) = 1/4 (l(l+1))^2 C_l^phi-phi
#
# 1:l     2:TT                     3:EE                     4:TE                     5:BB                     6:phiphi                 7:TPhi                   8:Ephi               
    2       3.539572004386e-10       3.285238872047e-14       6.528866458090e-13       0.000000000000e+00       4.085321774189e-09       8.911802348305e-10      -4.544383670532e-12 
    3       2.796633124921e-10       2.905902606164e-14       9.023337997724e-13       0.000000000000e+00       2.445287037118e-09       5.759701020816e-10      -2.485943591089e-12 
    4       2.305253591632e-10       1.665038322236e-14       8.440882806384e-13       0.000000000000e+00       1.650831068338e-09       4.048678313450e-10      -7.838827171053e-13 
    5       1.985664158389e-10       8.361651387168e-15       6.635408368165e-13       0.000000000000e+00       1.196134923360e-09       3.003385031432e-10       2.229002895952e-13 
    6       1.779059440535e-10       5.164771783385e-15       4.748097899811e-13       0.000000000000e+00       9.072672168265e-10       2.316717251550e-10       6.208287596385e-13 
    7       1.646399001539e-10       3.940456867084e-15       3.327972365606e-13       0.000000000000e+00       7.110984512013e-10       1.842561268837e-10       6.193476259163e-13 
    8       1.562199508097e-10       2.903014294698e-15       2.474112810264e-13       0.000000000000e+00       5.713711627919e-10       1.501629728374e-10       4.334167208956e-13 
    9       1.511280369633e-10       1.951553259889e-15       2.045342806936e-13       0.000000000000e+00       4.681629099124e-10       1.247682883240e-10       2.230854552129e-13 
   10       1.483379834545e-10       1.300145026411e-15       1.830468001678e-13       0.000000000000e+00       3.897062386485e-10       1.052480763467e-10       7.327969747441e-14 
   11       1.472380448956e-10       9.092823539586e-16       1.661167309677e-13       0.000000000000e+00       3.279685564447e-10       9.061886398830e-11       4.436634595403e-15 
   12       1.474291579145e-10       6.549631106113e-16       1.457282029208e-13       0.000000000000e+00       2.798050241323e-10       7.801632707038e-11      -6.118406588012e-15 
   13       1.486552036291e-10       4.860448774779e-16       1.220638613891e-13       0.000000000000e+00       2.409492492579e-10       6.783852581770e-11       9.710824978317e-15 
   14       1.506752081091e-10       3.950268058576e-16       1.000834093232e-13       0.000000000000e+00       2.091773590094e-10       5.949271452005e-11       2.555656188143e-14 
   15       1.533189482228e-10       3.686463954634e-16       8.516605776308e-14       0.000000000000e+00       1.828892741806e-10       5.258104042526e-11       2.947060441002e-14 
   16       1.565425856373e-10       3.855846053610e-16       7.973361311087e-14       0.000000000000e+00       1.609138019693e-10       4.681003203081e-11       2.223599108035e-14 
   17       1.601322871214e-10       4.240577973117e-16       8.256059667669e-14       0.000000000000e+00       1.423752931822e-10       4.193396353230e-11       1.091283276896e-14 
   18       1.640925223961e-10       4.624128876728e-16       8.987861411756e-14       0.000000000000e+00       1.265481931285e-10       3.773093567001e-11       2.733031193614e-15 
   19       1.684167204498e-10       4.919679738849e-16       9.826090530478e-14       0.000000000000e+00       1.131013781632e-10       3.412155423746e-11      -1.670483234417e-16 
   20       1.729922933914e-10       5.096508423404e-16       1.042424896929e-13       0.000000000000e+00       1.014460522880e-10       3.097552767825e-11       2.129892533433e-15 
   21       1.778182716916e-10       5.237630662989e-16       1.073305872804e-13       0.000000000000e+00       9.134969585370e-11       2.824116844033e-11       6.907842659680e-15 
   22       1.828855441322e-10       5.472592111848e-16       1.082959109476e-13       0.000000000000e+00       8.252312844199e-11       2.584497234632e-11       1.040012121752e-14 
   23       1.881664917063e-10       5.861865863106e-16       1.084254272820e-13       0.000000000000e+00       7.481122343544e-11       2.374410090801e-11       1.169572797145e-14 
   24       1.936024806706e-10       6.436643533431e-16       1.091589290527e-13       0.000000000000e+00       6.800207534740e-11       2.187783789288e-11       1.105260201589e-14 
   25       1.991890944284e-10       7.183970968170e-16       1.106116566444e-13       0.000000000000e+00       6.199207410558e-11       2.021662106982e-11       9.667617293852e-15 
   26       2.049197079883e-10       8.071358603545e-16       1.122756004504e-13       0.000000000000e+00       5.664935493289e-11       1.872457291314e-11       9.021214249547e-15 
   27       2.107848958908e-10       9.078669186490e-16       1.130201360259e-13       0.000000000000e+00       5.189253255281e-11       1.738547636032e-11       9.334939092890e-15 
   28       2.167631900381e-10       1.018739268670e-15       1.116311515105e-13       0.000000000000e+00       4.762223799257e-11       1.617944715250e-11       1.036254851374e-14 
   29       2.228547046800e-10       1.138936379508e-15       1.082503434719e-13       0.000000000000e+00       4.380569952217e-11       1.509837287635e-11       1.166951888936e-14 
   30       2.290517530823e-10       1.267739475804e-15       1.035810887366e-13       0.000000000000e+00       4.039063986761e-11       1.412607562552e-11       1.265146107808e-14 
   31       2.353347279853e-10       1.404579704813e-15       9.841270161830e-14       0.000000000000e+00       3.729359056102e-11       1.323744125471e-11       1.272661894437e-14 
   32       2.417034684059e-10       1.550616560165e-15       9.308570697998e-14       0.000000000000e+00       3.449131707859e-11       1.242632412293e-11       1.200057036266e-14 
   33       2.481546434012e-10       1.707780800772e-15       8.783510535045e-14       0.000000000000e+00       3.195759636597e-11       1.168635384928e-11       1.085805134019e-14 
   34       2.546766689429e-10       1.878059491306e-15       8.281220612685e-14       0.000000000000e+00       2.964918374025e-11       1.100619554323e-11       9.690871635914e-15 
   35       2.612655961005e-10       2.062329676045e-15       7.767577176743e-14       0.000000000000e+00       2.754929150209e-11       1.038102283152e-11       8.517948716417e-15 
   36       2.679127620177e-10       2.261122515198e-15       7.184558836889e-14       0.000000000000e+00       2.563599256283e-11       9.804079799322e-12       7.233760467893e-15 
   37       2.746049034349e-10       2.474881342955e-15       6.476583577300e-14       0.000000000000e+00       2.387847774744e-11       9.266227895637e-12       5.738178327755e-15 
   38       2.813425716605e-10       2.703809993889e-15       5.647410798958e-14       0.000000000000e+00       2.226912640708e-11       8.766445024364e-12       4.045112184468e-15 
   39       2.881265000167e-10       2.947961958803e-15       4.721887525723e-14       0.000000000000e+00       2.080014082024e-11       8.304252534197e-12       2.209544998354e-15 
   40       2.949518962344e-10       3.207269986488e-15       3.731225450546e-14       0.000000000000e+00       1.945388927098e-11       7.876611211590e-12       2.994773576576e-16 
   41       3.018111457733e-10       3.481678654914e-15       2.702259364424e-14       0.000000000000e+00       1.820839449245e-11       7.479099483549e-12      -1.608072709611e-15 
   42       3.087044419410e-10       3.771614574423e-15       1.620064916554e-14       0.000000000000e+00       1.705795867488e-11       7.110460141628e-12      -3.442579944713e-15 
   43       3.156315927526e-10       4.077654837962e-15       4.538382541962e-15       0.000000000000e+00       1.599784464915e-11       6.769148055659e-12      -5.128189962247e-15 
   44       3.225886347114e-10       4.400400216083e-15      -8.333796118498e-15       0.000000000000e+00       1.501813609487e-11       6.451920605873e-12      -6.578877191947e-15 
   45       3.295698544490e-10       4.740474267918e-15      -2.275948184953e-14       0.000000000000e+00       1.410685279830e-11       6.154881841681e-12      -7.717247508790e-15 
   46       3.365754720186e-10       5.098517624411e-15      -3.875372990410e-14       0.000000000000e+00       1.326135313020e-11       5.877299194451e-12      -8.538761367796e-15 
   47       3.436056066378e-10       5.475193968624e-15      -5.622142851800e-14       0.000000000000e+00       1.247965752107e-11       5.618702603524e-12      -9.065908160645e-15 
   48       3.506578372806e-10       5.871192950675e-15      -7.503915896348e-14       0.000000000000e+00       1.175703387903e-11       5.377744066187e-12      -9.331220170846e-15 
   49       3.577269601198e-10       6.287231229421e-15      -9.505363116895e-14       0.000000000000e+00       1.108579863957e-11       5.152133002286e-12      -9.377910728015e-15 
   50       3.648069330288e-10       6.723900965496e-15      -1.161237966442e-13       0.000000000000e+00       1.045741507191e-11       4.939290595580e-12      -9.254313239802e-15 
   51       3.718978940586e-10       7.181164401550e-15      -1.382642927541e-13       0.000000000000e+00       9.869921220755e-12       4.738672161139e-12      -8.993938259941e-15 
   52       3.790006287726e-10       7.658723892123e-15      -1.615382306447e-13       0.000000000000e+00       9.322174297573e-12       4.549963432095e-12      -8.631106225552e-15 
   53       3.861144133692e-10       8.156156470236e-15      -1.860174003735e-13       0.000000000000e+00       8.811640955074e-12       4.372386608144e-12      -8.207011666751e-15 
   54       3.932368750457e-10       8.672907710304e-15      -2.117827619324e-13       0.000000000000e+00       8.334306443090e-12       4.204669554356e-12      -7.770069637527e-15 
   55       4.003651651364e-10       9.208518226552e-15      -2.389073460687e-13       0.000000000000e+00       7.885765858513e-12       4.045417967554e-12      -7.366322534539e-15 
   56       4.075001397001e-10       9.763383118242e-15      -2.673988575546e-13       0.000000000000e+00       7.465023465174e-12       3.894410704748e-12      -7.007076168272e-15 
   57       4.146429728957e-10       1.033817043735e-14      -2.972436734019e-13       0.000000000000e+00       7.071478086008e-12       3.751572291395e-12      -6.693830598049e-15 
   58       4.217938486347e-10       1.093360794548e-14      -3.284229937320e-13       0.000000000000e+00       6.703779888225e-12       3.616583374410e-12      -6.427475399368e-15 
   59       4.289518720913e-10       1.155048604044e-14      -3.609126474658e-13       0.000000000000e+00       6.359785594825e-12       3.488865621014e-12      -6.208248837164e-15 
   60       4.361149812130e-10       1.218966068295e-14      -3.946828980135e-13       0.000000000000e+00       6.036513696101e-12       3.367566617583e-12      -6.035697039069e-15 
   61       4.432808604336e-10       1.285188973540e-14      -4.297072046997e-13       0.000000000000e+00       5.730898545999e-12       3.251794452833e-12      -5.908148973943e-15 
   62       4.504501216640e-10       1.353729242981e-14      -4.659912447054e-13       0.000000000000e+00       5.442351771707e-12       3.141417160667e-12      -5.821096039045e-15 
   63       4.576236835317e-10       1.424577321286e-14      -5.035500902516e-13       0.000000000000e+00       5.170698938493e-12       3.036416740239e-12      -5.768374650755e-15 
   64       4.648017766165e-10       1.497717531516e-14      -5.423999157663e-13       0.000000000000e+00       4.915412342871e-12       2.936648269382e-12      -5.742563267123e-15 
   65       4.719838867594e-10       1.573127839217e-14      -5.825580877325e-13       0.000000000000e+00       4.675591572126e-12       2.841832725755e-12      -5.734926197993e-15 
   66       4.791686983725e-10       1.650779616510e-14      -6.240432545374e-13       0.000000000000e+00       4.449944063834e-12       2.751549807985e-12      -5.735357415133e-15 
   67       4.863540377486e-10       1.730637406189e-14      -6.668754363201e-13       0.000000000000e+00       4.236765665387e-12       2.665230756806e-12      -5.732324362362e-15 
   68       4.935377251908e-10       1.812668021782e-14      -7.110719120666e-13       0.000000000000e+00       4.034355368610e-12       2.582310686670e-12      -5.715497128456e-15 
   69       5.007204586252e-10       1.896870516264e-14      -7.566337123122e-13       0.000000000000e+00       3.842400553424e-12       2.502737470137e-12      -5.684380195666e-15 
   70       5.079034151274e-10       1.983251889903e-14      -8.035565383373e-13       0.000000000000e+00       3.660838796957e-12       2.426553544215e-12      -5.641336804842e-15 
   71       5.150873609533e-10       2.071818294387e-14      -8.518347054364e-13       0.000000000000e+00       3.489440346691e-12       2.353742479586e-12      -5.589070610691e-15 
   72       5.222726180915e-10       2.162575035688e-14      -9.014611252793e-13       0.000000000000e+00       3.327799784202e-12       2.284225881298e-12      -5.530638171263e-15 
   73       5.294590308165e-10       2.255526576928e-14      -9.524272882724e-13       0.000000000000e+00       3.175327688910e-12       2.217860289463e-12      -5.469461437430e-15 
   74       5.366459322419e-10       2.350676541244e-14      -1.004723245920e-12       0.000000000000e+00       3.031242301819e-12       2.154434079948e-12      -5.409340242373e-15 
   75       5.438321108734e-10       2.448027714652e-14      -1.058337593184e-12       0.000000000000e+00       2.894561189264e-12       2.093664365070e-12      -5.354464791066e-15 
   76       5.510163852485e-10       2.547579407372e-14      -1.113258801649e-12       0.000000000000e+00       2.764324244857e-12       2.035266361819e-12      -5.308438159951e-15 
   77       5.581995227689e-10       2.649318975979e-14      -1.169479538656e-12       0.000000000000e+00       2.640328070616e-12       1.979182951463e-12      -5.271110398114e-15 
   78       5.653826116360e-10       2.753228753300e-14      -1.226993107398e-12       0.000000000000e+00       2.522510990671e-12       1.925391544917e-12      -5.241187117841e-15 
   79       5.725664631673e-10       2.859288502324e-14      -1.285792175887e-12       0.000000000000e+00       2.410730059082e-12       1.873833741698e-12      -5.217160583669e-15 
   80       5.797515908182e-10       2.967475364904e-14      -1.345868787013e-12       0.000000000000e+00       2.304757467369e-12       1.824413716625e-12      -5.197301901321e-15 
   81       5.869381892052e-10       3.077763810454e-14      -1.407214368608e-12       0.000000000000e+00       2.204276952024e-12       1.776996606515e-12      -5.179653206647e-15 
   82       5.941261131275e-10       3.190125584644e-14      -1.469819743505e-12       0.000000000000e+00       2.108880202041e-12       1.731406896886e-12      -5.162019854570e-15 
   83       6.013148565896e-10       3.304529658101e-14      -1.533675139596e-12       0.000000000000e+00       2.018063266432e-12       1.687426808657e-12      -5.141962608022e-15 
   84       6.085038760912e-10       3.420943562814e-14      -1.598769511092e-12       0.000000000000e+00       1.931337181324e-12       1.644848651153e-12      -5.117341378222e-15 
   85       6.156936680275e-10       3.539337768286e-14      -1.665088350969e-12       0.000000000000e+00       1.848588792302e-12       1.603645387040e-12      -5.088067125031e-15 
   86       6.228848322677e-10       3.659681940170e-14      -1.732615532630e-12       0.000000000000e+00       1.769773440254e-12       1.563825517005e-12      -5.054627413723e-15 
   87       6.300777288004e-10       3.781943589492e-14      -1.801333964968e-12       0.000000000000e+00       1.694804412022e-12       1.525380931623e-12      -5.017562123214e-15 
   88       6.372724625421e-10       3.906088044676e-14      -1.871225590858e-12       0.000000000000e+00       1.623551267576e-12       1.488286205050e-12      -4.977464904776e-15 
   89       6.444688681450e-10       4.032078423561e-14      -1.942271385633e-12       0.000000000000e+00       1.555838167196e-12       1.452497888721e-12      -4.934984640748e-15 
   90       6.516664948059e-10       4.159875605422e-14      -2.014451355572e-12       0.000000000000e+00       1.491442198649e-12       1.417953805047e-12      -4.890826903245e-15 
   91       6.588645910741e-10       4.289438202993e-14      -2.087744536383e-12       0.000000000000e+00       1.430091704366e-12       1.384572341109e-12      -4.845755412873e-15 
   92       6.660620896602e-10       4.420722534485e-14      -2.162128991688e-12       0.000000000000e+00       1.371464608624e-12       1.352251742357e-12      -4.800593497435e-15 
   93       6.732580526930e-10       4.553683203060e-14      -2.237582305798e-12       0.000000000000e+00       1.315257956299e-12       1.320895599245e-12      -4.756078243296e-15 
   94       6.804531170924e-10       4.688274995720e-14      -2.314083150132e-12       0.000000000000e+00       1.261412126248e-12       1.290495226049e-12      -4.712394688834e-15 
   95       6.876482395049e-10       4.824451219609e-14      -2.391609950679e-12       0.000000000000e+00       1.209917403667e-12       1.261058423596e-12      -4.669573944682e-15 
   96       6.948442464709e-10       4.962163100626e-14      -2.470140419899e-12       0.000000000000e+00       1.160745087185e-12       1.232584048168e-12      -4.627633703025e-15 
   97       7.020418255541e-10       5.101359763790e-14      -2.549651561987e-12       0.000000000000e+00       1.113846793554e-12       1.205061664741e-12      -4.586577674250e-15 
   98       7.092415164698e-10       5.241988213595e-14      -2.630119678145e-12       0.000000000000e+00       1.069153762335e-12       1.178471200234e-12      -4.546395023589e-15 
   99       7.164437022144e-10       5.383993314369e-14      -2.711520371849e-12       0.000000000000e+00       1.026576160589e-12       1.152782596748e-12      -4.507059807774e-15 
  100       7.236486001937e-10       5.527317770635e-14      -2.793828554121e-12       0.000000000000e+00       9.860023875594e-13       1.127955464811e-12      -4.468530411675e-15 
  101       7.308562533519e-10       5.671902107468e-14      -2.877018448794e-12       0.000000000000e+00       9.472983793668e-13       1.103938736615e-12      -4.430748984955e-15 
  102       7.380665213006e-10       5.817684650854e-14      -2.961063597784e-12       0.000000000000e+00       9.103069136913e-13       1.080670319268e-12      -4.393640878712e-15 
  103       7.452790714475e-10       5.964601508050e-14      -3.045936866358e-12       0.000000000000e+00       8.748469144631e-13       1.058076748027e-12      -4.357114082129e-15 
  104       7.524935806179e-10       6.112587681229e-14      -3.131610221252e-12       0.000000000000e+00       8.407509553286e-13       1.036089904460e-12      -4.321075826641e-15 
  105       7.597103900454e-10       6.261580622039e-14      -3.218054019537e-12       0.000000000000e+00       8.079850374107e-13       1.014700489799e-12      -4.285486166305e-15 
  106       7.669299227344e-10       6.411517122832e-14      -3.305237633065e-12       0.000000000000e+00       7.765437708413e-13       9.939111622248e-13      -4.250310618801e-15 
  107       7.741524743898e-10       6.562332219154e-14      -3.393129669783e-12       0.000000000000e+00       7.464133486328e-13       9.737199596960e-13      -4.215503274070e-15 
