# Matter power spectrum P(k) at redshift z=0
# for k=1.04079e-05 to 1.71393 h/Mpc,
# number of wavenumbers equal to 568
#    1:k (h/Mpc)              2:P (Mpc/h)^3        
       1.040786990893e-05       5.307719808743e+01 
       2.324783283739e-05       1.149810626741e+02 
       3.613264030290e-05       1.757269254478e+02 
       4.909673912387e-05       2.359967213476e+02 
       6.217514207698e-05       2.961736552981e+02 
       7.540373812016e-05       3.565419692338e+02 
       8.881961247206e-05       4.173428507333e+02 
       1.024613807804e-04       4.787971782986e+02 
       1.163695416441e-04       5.411171505768e+02 
       1.305868517874e-04       6.045132585739e+02 
       1.451587281911e-04       6.691990816246e+02 
       1.601336814312e-04       7.353949787513e+02 
       1.755637843044e-04       8.033312054224e+02 
       1.915051794670e-04       8.732507381689e+02 
       2.080186291821e-04       9.454119637259e+02 
       2.251701092359e-04       1.020091312790e+03 
       2.430314474857e-04       1.097585907843e+03 
       2.616810051246e-04       1.178216204197e+03 
       2.812043953358e-04       1.262328650408e+03 
       3.016952292373e-04       1.350298283739e+03 
       3.232558725298e-04       1.442531223435e+03 
       3.459981876522e-04       1.539466909670e+03 
       3.700442251636e-04       1.641579934328e+03 
       3.955268142423e-04       1.749381241170e+03 
       4.225899856214e-04       1.863418401076e+03 
       4.513891414479e-04       1.984274586771e+03 
       4.820908667031e-04       2.112565827549e+03 
       5.148722583449e-04       2.248936067419e+03 
       5.499196350939e-04       2.394049455239e+03 
       5.874264883575e-04       2.548579444084e+03 
       6.275905502423e-04       2.713194264771e+03 
       6.706098956786e-04       2.888538655889e+03 
       7.166780688392e-04       3.075211960856e+03 
       7.659783315466e-04       3.273743289740e+03 
       8.186772676071e-04       3.484565021562e+03 
       8.749181254647e-04       3.707986283139e+03 
       9.348144142051e-04       3.944168852077e+03 
       9.984443493259e-04       4.193107918141e+03 
       1.065846741316e-03       4.454620060519e+03 
       1.137018813018e-03       4.728340353281e+03 
       1.211916227576e-03       5.013729372914e+03 
       1.290455342633e-03       5.310089757014e+03 
       1.372517433847e-03       5.616590722200e+03 
       1.457954410170e-03       5.932298205746e+03 
       1.546595416946e-03       6.256207210760e+03 
       1.638253705012e-03       6.587273844636e+03 
       1.732733220092e-03       6.924444723021e+03 
       1.829834503550e-03       7.266682253882e+03 
       1.929359654305e-03       7.612984605059e+03 
       2.031116250061e-03       7.962388077811e+03 
       2.134920243863e-03       8.314009276489e+03 
       2.240597931798e-03       8.667034914759e+03 
       2.347987131486e-03       9.020715293256e+03 
       2.456937726101e-03       9.374371371009e+03 
       2.567311723843e-03       9.727393372068e+03 
       2.678982966389e-03       1.007923584947e+04 
       2.791836598083e-03       1.042941552563e+04 
       2.905768385018e-03       1.077750405162e+04 
       3.020683952107e-03       1.112312611089e+04 
       3.136497988191e-03       1.146595149827e+04 
       3.253133454418e-03       1.180569353104e+04 
       3.370520819585e-03       1.214210099296e+04 
       3.488597337305e-03       1.247495909641e+04 
       3.607306373460e-03       1.280407984235e+04 
       3.726596787777e-03       1.312930621899e+04 
       3.846422370219e-03       1.345049998136e+04 
       3.966741330795e-03       1.376754795732e+04 
       4.087515840061e-03       1.408035582785e+04 
       4.208711616878e-03       1.438884128685e+04 
       4.330297559598e-03       1.469294500131e+04 
       4.452245416774e-03       1.499261013026e+04 
       4.574529493566e-03       1.528780335061e+04 
       4.697126390211e-03       1.557848754021e+04 
       4.820014769137e-03       1.586459601538e+04 
       4.943175147643e-03       1.614622951670e+04 
       5.066589713269e-03       1.642329046323e+04 
       5.190242159341e-03       1.669580975982e+04 
       5.314117538382e-03       1.696382352014e+04 
       5.438202131361e-03       1.722735056335e+04 
       5.562483330971e-03       1.748635187679e+04 
       5.686949537328e-03       1.774006386523e+04 
       5.811590064678e-03       1.799009147012e+04 
       5.936395057861e-03       1.823566622537e+04 
       6.061355417417e-03       1.847677183440e+04 
       6.186462732378e-03       1.871357294245e+04 
       6.311709219872e-03       1.894617286628e+04 
       6.437087670784e-03       1.917465053280e+04 
       6.562591400821e-03       1.939829635277e+04 
       6.688214206365e-03       1.961779247903e+04 
       6.813950324622e-03       1.983300847100e+04 
       6.939794397585e-03       2.004414718776e+04 
       7.065741439424e-03       2.025115912983e+04 
       7.191786806921e-03       2.045402452280e+04 
       7.317926172655e-03       2.065281147673e+04 
       7.444155500636e-03       2.084742306380e+04 
       7.570471024152e-03       2.103826406761e+04 
       7.696869225591e-03       2.122566440005e+04 
       7.823346818054e-03       2.140859964440e+04 
       7.949900728577e-03       2.158765579021e+04 
       8.076528082798e-03       2.176287335886e+04 
       8.203226190940e-03       2.193436250518e+04 
       8.329992534984e-03       2.210208185062e+04 
       8.456824756904e-03       2.226610125720e+04 
       8.583720647889e-03       2.242644250936e+04 
       8.710678138434e-03       2.258316774807e+04 
       8.837695289246e-03       2.273630383342e+04 
       8.964770282871e-03       2.288585537939e+04 
       9.091901415992e-03       2.303192499154e+04 
       9.219087092328e-03       2.317455010667e+04 
       9.346325816085e-03       2.331372346441e+04 
       9.473616185919e-03       2.344953373967e+04 
       9.600956889354e-03       2.358136062353e+04 
       9.728346697623e-03       2.371111919645e+04 
       9.855784460900e-03       2.383697250532e+04 
       9.983269103887e-03       2.395965056102e+04 
       1.011079962172e-02       2.407899304612e+04 
       1.023837507619e-02       2.419522880646e+04 
       1.036599459221e-02       2.430842923530e+04 
       1.049365735460e-02       2.441844578884e+04 
       1.062136260499e-02       2.452534013651e+04 
       1.074910963909e-02       2.462936074330e+04 
       1.087689780404e-02       2.473024103580e+04 
       1.100472649597e-02       2.482823361316e+04 
       1.113259515779e-02       2.492332106676e+04 
       1.126050327707e-02       2.501559710605e+04 
       1.138845038409e-02       2.510489004570e+04 
       1.151643605002e-02       2.519136502591e+04 
       1.164445988526e-02       2.527513259079e+04 
       1.177252153786e-02       2.535621548508e+04 
       1.190062069204e-02       2.543440190714e+04 
       1.202875706686e-02       2.550995496692e+04 
       1.215693041496e-02       2.558293986155e+04 
       1.228514052134e-02       2.565330842656e+04 
       1.241338720235e-02       2.572102279410e+04 
       1.254167030459e-02       2.578618400287e+04 
       1.266998970404e-02       2.584868755136e+04 
       1.279834530514e-02       2.590880602433e+04 
       1.292673704001e-02       2.596651236894e+04 
       1.305516486768e-02       2.602171043490e+04 
       1.318362877343e-02       2.607453035106e+04 
       1.331212876812e-02       2.612497183965e+04 
       1.344066488761e-02       2.617312945707e+04 
       1.356923719223e-02       2.621882060445e+04 
       1.369784576626e-02       2.626231717655e+04 
       1.382649071750e-02       2.630345410042e+04 
       1.395517217684e-02       2.634239447813e+04 
       1.408389029789e-02       2.637925023731e+04 
       1.421264525665e-02       2.641373277876e+04 
       1.434143725116e-02       2.644610864950e+04 
       1.447026650130e-02       2.647643520607e+04 
       1.459913324845e-02       2.650462584235e+04 
       1.472803775538e-02       2.653070943709e+04 
       1.485698030600e-02       2.655476447255e+04 
       1.498596120520e-02       2.657692871525e+04 
       1.511498077877e-02       2.659689558527e+04 
       1.524403937324e-02       2.661495915139e+04 
       1.537313735582e-02       2.663115472112e+04 
       1.550227511436e-02       2.664533621978e+04 
       1.563145305726e-02       2.665766299553e+04 
       1.576067161353e-02       2.666815877543e+04 
       1.588993123274e-02       2.667678419410e+04 
       1.601923238505e-02       2.668274643574e+04 
       1.614857556129e-02       2.668860629506e+04 
       1.627796127301e-02       2.669192372289e+04 
       1.640739005255e-02       2.669254847516e+04 
       1.653686245316e-02       2.669312292140e+04 
       1.666637904915e-02       2.669130391512e+04 
       1.679594043597e-02       2.668760195117e+04 
       1.692554723041e-02       2.668234969813e+04 
       1.705520007076e-02       2.667558315386e+04 
       1.718489961704e-02       2.666714796188e+04 
       1.731464655114e-02       2.665702060445e+04 
       1.744444157710e-02       2.664549960028e+04 
       1.757428542135e-02       2.663170074059e+04 
       1.770417883296e-02       2.661693294719e+04 
       1.783412258389e-02       2.660059717024e+04 
       1.796411746933e-02       2.658389216503e+04 
       1.809416430801e-02       2.656432248230e+04 
       1.822426394247e-02       2.654429646722e+04 
       1.835441723945e-02       2.652249554407e+04 
       1.848462509026e-02       2.649853118558e+04 
       1.861488841112e-02       2.647375958524e+04 
       1.874520814357e-02       2.644751871637e+04 
       1.887558525490e-02       2.642058456714e+04 
       1.900602073852e-02       2.639281763100e+04 
       1.913651561450e-02       2.636296150955e+04 
       1.926707092994e-02       2.633083728680e+04 
       1.939768775950e-02       2.629948497294e+04 
       1.952836720591e-02       2.626591538902e+04 
       1.965911040044e-02       2.623112083743e+04 
       1.978991850349e-02       2.619412636547e+04 
       1.992079270510e-02       2.615810063093e+04 
       2.005173422557e-02       2.611920665060e+04 
       2.018274431602e-02       2.607958269996e+04 
       2.031382425903e-02       2.604000780250e+04 
       2.044497536926e-02       2.599740519832e+04 
       2.057619899412e-02       2.595568276528e+04 
       2.070749651443e-02       2.591213471376e+04 
       2.083886934517e-02       2.586640505607e+04 
       2.097031893613e-02       2.582069462465e+04 
       2.110184677274e-02       2.577428719612e+04 
       2.123345437678e-02       2.572648487261e+04 
       2.136514330721e-02       2.567782694123e+04 
       2.149691516097e-02       2.562862091441e+04 
       2.162877157386e-02       2.557803721898e+04 
       2.176071422138e-02       2.552671044930e+04 
       2.189274481966e-02       2.547531064074e+04 
       2.202486512636e-02       2.542213820889e+04 
       2.215707694169e-02       2.536736281786e+04 
       2.228938210932e-02       2.531246041328e+04 
       2.242178251746e-02       2.525701638655e+04 
       2.255428009990e-02       2.520050522587e+04 
       2.268687683707e-02       2.514338812284e+04 
       2.281957475720e-02       2.508555985727e+04 
       2.295237593746e-02       2.502680271181e+04 
       2.308528250512e-02       2.496739027443e+04 
       2.321829663883e-02       2.490720025789e+04 
       2.335142056987e-02       2.484651811044e+04 
       2.348465658344e-02       2.478494332749e+04 
       2.361800702000e-02       2.472254419470e+04 
       2.375147427673e-02       2.466044469771e+04 
       2.388506080888e-02       2.459637962180e+04 
       2.401876913131e-02       2.453226555392e+04 
       2.415260181999e-02       2.446777034929e+04 
       2.428656151360e-02       2.440262108603e+04 
       2.442065091514e-02       2.433634595916e+04 
       2.455487279364e-02       2.427009428815e+04 
       2.468922998585e-02       2.420272744083e+04 
       2.482372539809e-02       2.413515175882e+04 
       2.495836200807e-02       2.406692859958e+04 
       2.509314286682e-02       2.399811304835e+04 
       2.522807110064e-02       2.392881942283e+04 
       2.536314991320e-02       2.385946238751e+04 
       2.549838258759e-02       2.378910853936e+04 
       2.563377248854e-02       2.371854340501e+04 
       2.576932306469e-02       2.364773286649e+04 
       2.590503785090e-02       2.357624526670e+04 
       2.604092047067e-02       2.350448156880e+04 
       2.617697463866e-02       2.343236188286e+04 
       2.631320416323e-02       2.335915028637e+04 
       2.644961294919e-02       2.328607656295e+04 
       2.658620500050e-02       2.321265498420e+04 
       2.672298442320e-02       2.313881680866e+04 
       2.685995542831e-02       2.306463576793e+04 
       2.699712233500e-02       2.299005693034e+04 
       2.713448957370e-02       2.291561372774e+04 
       2.727206168945e-02       2.284038595506e+04 
       2.740984334530e-02       2.276465447055e+04 
       2.754783932590e-02       2.268879503788e+04 
       2.768605454114e-02       2.261270967787e+04 
       2.782449403003e-02       2.253658972412e+04 
       2.796316296460e-02       2.246001615967e+04 
       2.810206665408e-02       2.238303149099e+04 
       2.824121054914e-02       2.230569729843e+04 
       2.838060024635e-02       2.222837895468e+04 
       2.852024149276e-02       2.215076254605e+04 
       2.866014019076e-02       2.207296109269e+04 
       2.880030240299e-02       2.199491504104e+04 
       2.894073435756e-02       2.191666157042e+04 
       2.908144245345e-02       2.183825008723e+04 
       2.922243326606e-02       2.175967662495e+04 
       2.936371355313e-02       2.168089995792e+04 
       2.950529026074e-02       2.160242637915e+04 
       2.964717052966e-02       2.152288388070e+04 
       2.978936170196e-02       2.144365220117e+04 
       2.993187132784e-02       2.136427248574e+04 
       3.007470717283e-02       2.128473254534e+04 
       3.021787722520e-02       2.120510464118e+04 
       3.036138970382e-02       2.112534196219e+04 
       3.050525306620e-02       2.104581532620e+04 
       3.064947601705e-02       2.096548728139e+04 
       3.079406751709e-02       2.088579517260e+04 
       3.093903679232e-02       2.080525873711e+04 
       3.108439334368e-02       2.072498615977e+04 
       3.123014695720e-02       2.064469407079e+04 
       3.137630771452e-02       2.056431815569e+04 
       3.152288600401e-02       2.048417223019e+04 
       3.166989253231e-02       2.040371994501e+04 
       3.181733833649e-02       2.032274610650e+04 
       3.196523479675e-02       2.024217134541e+04 
       3.211359364975e-02       2.016150668263e+04 
       3.226242700257e-02       2.008111713078e+04 
       3.241174734737e-02       2.000040425907e+04 
       3.256156757677e-02       1.991957914420e+04 
       3.271190100000e-02       1.983883407575e+04 
       3.286276135986e-02       1.975797563989e+04 
       3.301416285058e-02       1.967703338430e+04 
       3.316612013656e-02       1.959646080475e+04 
       3.331864837208e-02       1.951563220676e+04 
       3.347176322212e-02       1.943487725288e+04 
       3.362548088417e-02       1.935382545431e+04 
       3.377981811136e-02       1.927322514611e+04 
       3.393479223671e-02       1.919249516811e+04 
       3.409042119880e-02       1.911175004638e+04 
       3.424672356881e-02       1.903104881470e+04 
       3.440371857913e-02       1.895035003078e+04 
       3.456142615358e-02       1.886946467229e+04 
       3.471986693933e-02       1.878882528731e+04 
       3.487906234069e-02       1.870811343575e+04 
       3.503903455495e-02       1.862753418117e+04 
       3.519980661023e-02       1.854719145001e+04 
       3.536140240573e-02       1.846656329984e+04 
       3.552384675431e-02       1.838605700347e+04 
       3.568716542782e-02       1.830557899093e+04 
       3.585138520512e-02       1.822537232391e+04 
       3.601653392325e-02       1.814477187709e+04 
       3.618264053178e-02       1.806464141684e+04 
       3.634973515075e-02       1.798435883931e+04 
       3.651784913229e-02       1.790409471305e+04 
       3.668701512651e-02       1.782388840459e+04 
       3.685726715161e-02       1.774371753839e+04 
       3.702864066892e-02       1.766361418754e+04 
       3.720117266304e-02       1.758363863554e+04 
       3.737490172760e-02       1.750360158854e+04 
       3.754986815711e-02       1.742359171552e+04 
       3.772611404539e-02       1.734369364696e+04 
       3.790368339121e-02       1.726399460559e+04 
       3.808262221163e-02       1.718399543238e+04 
       3.826297866402e-02       1.710426816679e+04 
       3.844480317713e-02       1.702436061199e+04 
       3.862814859248e-02       1.694469649798e+04 
       3.881307031670e-02       1.686487205831e+04 
       3.899962648598e-02       1.678526224516e+04 
       3.918787814390e-02       1.670551934428e+04 
       3.937788943367e-02       1.662595522501e+04 
       3.956972780656e-02       1.654618848355e+04 
       3.976346424782e-02       1.646667322585e+04 
       3.995917352209e-02       1.638723188241e+04 
       4.015693444025e-02       1.630742933546e+04 
       4.035683014998e-02       1.622781358395e+04 
       4.055894845258e-02       1.614826452813e+04 
       4.076338214890e-02       1.606855674214e+04 
       4.097022941769e-02       1.598857073192e+04 
       4.117959422990e-02       1.590887722048e+04 
       4.139158680318e-02       1.582914720306e+04 
       4.160632410125e-02       1.574933171359e+04 
       4.182393038352e-02       1.566949536195e+04 
       4.204453781102e-02       1.558961036764e+04 
       4.226828711558e-02       1.550946947018e+04 
       4.249532834042e-02       1.542919474916e+04 
       4.272582166113e-02       1.534902907180e+04 
       4.295993829772e-02       1.526855965552e+04 
       4.319786152985e-02       1.518834490349e+04 
       4.343978782949e-02       1.510740827091e+04 
       4.368592812724e-02       1.502661587322e+04 
       4.393650923141e-02       1.494557126238e+04 
       4.419177542221e-02       1.486459218016e+04 
       4.445199024696e-02       1.478293081094e+04 
       4.471743854702e-02       1.470137929868e+04 
       4.498842875248e-02       1.461924618296e+04 
       4.526529548731e-02       1.453712598098e+04 
       4.554840253550e-02       1.445462234993e+04 
       4.583814622858e-02       1.437206598857e+04 
       4.613495932647e-02       1.428873276802e+04 
       4.643931547827e-02       1.420507569158e+04 
       4.675173436705e-02       1.412098729406e+04 
       4.707278766480e-02       1.403637094254e+04 
       4.740310595049e-02       1.395131907909e+04 
       4.774338677808e-02       1.386518073886e+04 
       4.809440412320e-02       1.377920998961e+04 
       4.845701949009e-02       1.369166719627e+04 
       4.883219502648e-02       1.360379725079e+04 
       4.922100907835e-02       1.351508373567e+04 
       4.962467472263e-02       1.342610636156e+04 
       5.004456195113e-02       1.333473957786e+04 
       5.048222435138e-02       1.324277330192e+04 
       5.093943134973e-02       1.314965461600e+04 
       5.141820736165e-02       1.305536176902e+04 
       5.192087954902e-02       1.295973992439e+04 
       5.245013633100e-02       1.286160823832e+04 
       5.300909934859e-02       1.276174029986e+04 
       5.360141225221e-02       1.265935421789e+04 
       5.423135045202e-02       1.255467653347e+04 
       5.490395677844e-02       1.244667840218e+04 
       5.562520866921e-02       1.233514197863e+04 
       5.640222262920e-02       1.221888139282e+04 
       5.724350045265e-02       1.209791274045e+04 
       5.815921736800e-02       1.196985038286e+04 
       5.916154167367e-02       1.183462183961e+04 
       6.026495293491e-02       1.168961572179e+04 
       6.148648243450e-02       1.153135813304e+04 
