# Matter power spectrum P(k) at redshift z=0
# for k=1.0251e-05 to 1.58216 h/Mpc,
# number of wavenumbers equal to 564
#    1:k (h/Mpc)              2:P (Mpc/h)^3        
       1.025095914171e-05       5.392993600151e+01 
       2.317361123443e-05       1.181838348068e+02 
       3.614137683195e-05       1.812201968635e+02 
       4.918937179784e-05       2.437587541558e+02 
       6.235329099928e-05       3.062018550635e+02 
       7.566972864379e-05       3.688476177768e+02 
       8.917650884784e-05       4.319489747501e+02 
       1.029130308635e-04       4.957376736775e+02 
       1.169206334221e-04       5.604364868254e+02 
       1.312429826879e-04       6.262665428946e+02 
       1.459264883219e-04       6.934523727823e+02 
       1.610207520904e-04       7.622258020646e+02 
       1.765790532727e-04       8.328292437068e+02 
       1.926588747332e-04       9.055186854785e+02 
       2.093224728472e-04       9.801356913106e+02 
       2.266374933483e-04       1.057808876259e+03 
       2.446776334407e-04       1.138443455987e+03 
       2.635233479580e-04       1.222386806651e+03 
       2.832625936607e-04       1.310003135069e+03 
       3.039916006232e-04       1.401655613426e+03 
       3.258156526554e-04       1.497837919629e+03 
       3.488498494327e-04       1.598751004534e+03 
       3.732198110768e-04       1.705359744605e+03 
       3.990622710824e-04       1.817881445709e+03 
       4.265254857758e-04       1.937092332108e+03 
       4.557693684850e-04       2.063511446372e+03 
       4.869652357706e-04       2.197814628699e+03 
       5.202950341154e-04       2.340488945926e+03 
       5.559499027513e-04       2.492033133081e+03 
       5.941279279792e-04       2.653604022103e+03 
       6.350309641141e-04       2.825850475549e+03 
       6.788604442368e-04       3.009406253253e+03 
       7.258121866527e-04       3.204932625864e+03 
       7.760703216757e-04       3.412823583751e+03 
       8.298006102956e-04       3.633800491485e+03 
       8.871435817010e-04       3.867603487932e+03 
       9.482080487992e-04       4.114674521380e+03 
       1.013065631646e-03       4.374726640247e+03 
       1.081746894354e-03       4.647716549300e+03 
       1.154239566128e-03       4.933332907770e+03 
       1.230489084925e-03       5.230833990536e+03 
       1.310401415845e-03       5.539382860173e+03 
       1.393847817188e-03       5.858119261145e+03 
       1.480671015036e-03       6.185998503666e+03 
       1.570692141081e-03       6.521991241372e+03 
       1.663717795788e-03       6.864896398812e+03 
       1.759546698377e-03       7.213571164888e+03 
       1.857975538416e-03       7.567006043752e+03 
       1.958803810566e-03       7.924149550524e+03 
       2.061837562883e-03       8.283992795882e+03 
       2.166892102352e-03       8.645619639927e+03 
       2.273793774181e-03       9.008223626299e+03 
       2.382380967943e-03       9.370978062509e+03 
       2.492504512485e-03       9.733203756679e+03 
       2.604027612029e-03       1.009424465784e+04 
       2.716825456332e-03       1.045363329618e+04 
       2.830784614233e-03       1.081082342126e+04 
       2.945802296430e-03       1.116542388346e+04 
       3.061785552138e-03       1.151702492884e+04 
       3.178650446388e-03       1.186530678741e+04 
       3.296321250360e-03       1.220998417680e+04 
       3.414729665995e-03       1.255078606243e+04 
       3.533814097837e-03       1.288753156914e+04 
       3.653518979001e-03       1.322003947338e+04 
       3.773794153949e-03       1.354815435908e+04 
       3.894594317850e-03       1.387173672312e+04 
       4.015878510477e-03       1.419068202803e+04 
       4.137609661442e-03       1.450489665390e+04 
       4.259754182975e-03       1.481432870461e+04 
       4.382281606192e-03       1.511889156255e+04 
       4.505164256779e-03       1.541857233041e+04 
       4.628376966176e-03       1.571333188409e+04 
       4.751896814536e-03       1.600314202022e+04 
       4.875702902048e-03       1.628799417673e+04 
       4.999776145481e-03       1.656787399114e+04 
       5.124099097124e-03       1.684279225509e+04 
       5.248655783576e-03       1.711276223868e+04 
       5.373431562122e-03       1.737782468298e+04 
       5.498412992661e-03       1.763960588831e+04 
       5.623587723415e-03       1.789522548796e+04 
       5.748944388825e-03       1.814594512777e+04 
       5.874472518238e-03       1.838960784894e+04 
       6.000162454160e-03       1.863094404842e+04 
       6.126005278973e-03       1.886737270004e+04 
       6.251992749178e-03       1.909907960490e+04 
       6.378117236311e-03       1.932610460038e+04 
       6.504371673785e-03       1.954848927757e+04 
       6.630749509014e-03       1.976627658823e+04 
       6.757244660232e-03       1.997950919070e+04 
       6.883851477508e-03       2.018823370760e+04 
       7.010564707492e-03       2.038858396410e+04 
       7.137379461509e-03       2.058834256816e+04 
       7.264291186643e-03       2.078370797785e+04 
       7.391295639494e-03       2.097376288183e+04 
       7.518388862345e-03       2.116075312910e+04 
       7.645567161477e-03       2.134298383849e+04 
       7.772827087431e-03       2.152159465978e+04 
       7.900165417014e-03       2.169641347963e+04 
       8.027579136873e-03       2.186463532949e+04 
       8.155065428493e-03       2.203098350090e+04 
       8.282621654478e-03       2.219322385775e+04 
       8.410245345988e-03       2.235146592081e+04 
       8.537934191230e-03       2.250482117227e+04 
       8.665686024895e-03       2.265566026156e+04 
       8.793498818469e-03       2.280216564535e+04 
       8.921370671317e-03       2.294402926170e+04 
       9.049299802492e-03       2.308371774674e+04 
       9.177284543186e-03       2.321974218558e+04 
       9.305323329776e-03       2.335232741443e+04 
       9.433414697417e-03       2.347880378343e+04 
       9.561557274119e-03       2.360497777418e+04 
       9.689749775283e-03       2.372691735255e+04 
       9.817990998651e-03       2.384538132502e+04 
       9.946279819628e-03       2.395713966462e+04 
       1.007461518696e-02       2.406884101921e+04 
       1.020299611874e-02       2.417626399440e+04 
       1.033142169866e-02       2.428117435614e+04 
       1.045989107263e-02       2.438335543254e+04 
       1.058840344551e-02       2.448180724856e+04 
       1.071695807821e-02       2.457637781907e+04 
       1.084555428492e-02       2.466810831708e+04 
       1.097419143053e-02       2.475755092675e+04 
       1.110286892828e-02       2.484419532656e+04 
       1.123158623756e-02       2.492670397497e+04 
       1.136034286182e-02       2.500753546780e+04 
       1.148913834671e-02       2.508555098534e+04 
       1.161797227826e-02       2.516070900035e+04 
       1.174684428125e-02       2.523304676950e+04 
       1.187575401769e-02       2.529954742934e+04 
       1.200470118536e-02       2.536573027231e+04 
       1.213368551650e-02       2.542990025741e+04 
       1.226270677656e-02       2.549140216065e+04 
       1.239176476308e-02       2.555027147759e+04 
       1.252085930461e-02       2.560374194285e+04 
       1.264999025969e-02       2.565741392847e+04 
       1.277915751598e-02       2.570763807740e+04 
       1.290836098939e-02       2.575608263054e+04 
       1.303760062325e-02       2.580240142767e+04 
       1.316687638766e-02       2.584586586938e+04 
       1.329618827874e-02       2.588565733063e+04 
       1.342553631805e-02       2.592486945599e+04 
       1.355492055202e-02       2.596175619154e+04 
       1.368434105138e-02       2.599634981451e+04 
       1.381379791072e-02       2.602845610960e+04 
       1.394329124803e-02       2.605611257426e+04 
       1.407282120432e-02       2.608326670708e+04 
       1.420238794321e-02       2.610882386481e+04 
       1.433199165066e-02       2.613269356694e+04 
       1.446163253461e-02       2.615367829524e+04 
       1.459131082478e-02       2.617184342675e+04 
       1.472102677239e-02       2.618932865109e+04 
       1.485078064999e-02       2.620373373355e+04 
       1.498057275126e-02       2.621721432859e+04 
       1.511040339089e-02       2.622873620110e+04 
       1.524027290440e-02       2.623830120146e+04 
       1.537018164814e-02       2.624384845618e+04 
       1.550012999912e-02       2.624960612074e+04 
       1.563011835502e-02       2.625262150209e+04 
       1.576014713412e-02       2.625544791095e+04 
       1.589021677535e-02       2.625457454239e+04 
       1.602032773824e-02       2.625323768916e+04 
       1.615048050300e-02       2.625005103779e+04 
       1.628067557056e-02       2.624526810903e+04 
       1.641091346265e-02       2.623686116163e+04 
       1.654119472187e-02       2.622815608293e+04 
       1.667151991184e-02       2.621788349585e+04 
       1.680188961730e-02       2.620655176159e+04 
       1.693230444428e-02       2.619418609931e+04 
       1.706276502023e-02       2.617779409065e+04 
       1.719327199426e-02       2.616131969218e+04 
       1.732382603727e-02       2.614319912390e+04 
       1.745442784224e-02       2.612422303356e+04 
       1.758507812439e-02       2.610373296905e+04 
       1.771577762150e-02       2.608078537755e+04 
       1.784652709414e-02       2.605749089765e+04 
       1.797732732594e-02       2.603313360899e+04 
       1.810817912393e-02       2.600515074600e+04 
       1.823908331882e-02       2.597737349164e+04 
       1.837004076537e-02       2.594877944402e+04 
       1.850105234272e-02       2.591814242530e+04 
       1.863211895474e-02       2.588683794407e+04 
       1.876324153046e-02       2.585427317503e+04 
       1.889442102442e-02       2.582046893768e+04 
       1.902565841714e-02       2.578392357203e+04 
       1.915695471550e-02       2.574720047846e+04 
       1.928831095325e-02       2.570965732402e+04 
       1.941972819144e-02       2.567114075000e+04 
       1.955120751894e-02       2.563077388398e+04 
       1.968275005291e-02       2.558953433519e+04 
       1.981435693936e-02       2.554770892772e+04 
       1.994602935370e-02       2.550480858694e+04 
       2.007776850128e-02       2.546085266867e+04 
       2.020957561796e-02       2.541503447441e+04 
       2.034145197078e-02       2.536911937805e+04 
       2.047339885851e-02       2.532084963548e+04 
       2.060541761237e-02       2.527247718114e+04 
       2.073750959662e-02       2.522343581903e+04 
       2.086967620931e-02       2.517337039787e+04 
       2.100191888297e-02       2.512186610990e+04 
       2.113423908534e-02       2.506994588531e+04 
       2.126663832014e-02       2.501719613260e+04 
       2.139911812786e-02       2.496315993690e+04 
       2.153168008654e-02       2.490928795284e+04 
       2.166432581263e-02       2.485341303962e+04 
       2.179705696183e-02       2.479753222567e+04 
       2.192987523002e-02       2.474081689461e+04 
       2.206278235411e-02       2.468260575676e+04 
       2.219578011304e-02       2.462404862030e+04 
       2.232887032872e-02       2.456507606058e+04 
       2.246205486704e-02       2.450433824531e+04 
       2.259533563893e-02       2.444352773086e+04 
       2.272871460140e-02       2.438230103633e+04 
       2.286219375864e-02       2.432000471575e+04 
       2.299577516316e-02       2.425722210060e+04 
       2.312946091699e-02       2.419412161564e+04 
       2.326325317284e-02       2.413041640790e+04 
       2.339715413537e-02       2.406513483169e+04 
       2.353116606249e-02       2.399983577324e+04 
       2.366529126665e-02       2.393417198169e+04 
       2.379953211623e-02       2.386790278207e+04 
       2.393389103694e-02       2.380055311192e+04 
       2.406837051331e-02       2.373355991959e+04 
       2.420297309013e-02       2.366521830226e+04 
       2.433770137405e-02       2.359655524041e+04 
       2.447255803517e-02       2.352777162217e+04 
       2.460754580867e-02       2.345849088423e+04 
       2.474266749655e-02       2.338784369151e+04 
       2.487792596937e-02       2.331712902491e+04 
       2.501332416806e-02       2.324644421293e+04 
       2.514886510584e-02       2.317531564215e+04 
       2.528455187010e-02       2.310297815954e+04 
       2.542038762446e-02       2.303071224734e+04 
       2.555637561082e-02       2.295825580467e+04 
       2.569251915150e-02       2.288536763235e+04 
       2.582882165147e-02       2.281175394569e+04 
       2.596528660061e-02       2.273825575156e+04 
       2.610191757611e-02       2.266402721359e+04 
       2.623871824492e-02       2.258982983223e+04 
       2.637569236625e-02       2.251458905019e+04 
       2.651284379423e-02       2.243943497956e+04 
       2.665017648061e-02       2.236432448084e+04 
       2.678769447757e-02       2.228845237392e+04 
       2.692540194063e-02       2.221241533199e+04 
       2.706330313167e-02       2.213605093788e+04 
       2.720140242204e-02       2.205961351487e+04 
       2.733970429582e-02       2.198307846004e+04 
       2.747821335315e-02       2.190590452378e+04 
       2.761693431371e-02       2.182860208187e+04 
       2.775587202033e-02       2.175135265418e+04 
       2.789503144274e-02       2.167327044672e+04 
       2.803441768143e-02       2.159533549728e+04 
       2.817403597169e-02       2.151737582625e+04 
       2.831389168777e-02       2.143902108383e+04 
       2.845399034725e-02       2.136039046307e+04 
       2.859433761552e-02       2.128175814287e+04 
       2.873493931048e-02       2.120310295550e+04 
       2.887580140738e-02       2.112432330432e+04 
       2.901693004391e-02       2.104508103288e+04 
       2.915833152544e-02       2.096607844898e+04 
       2.930001233049e-02       2.088636162894e+04 
       2.944197911644e-02       2.080710096052e+04 
       2.958423872542e-02       2.072734030766e+04 
       2.972679819050e-02       2.064757061480e+04 
       2.986966474212e-02       2.056778666542e+04 
       3.001284581477e-02       2.048811924688e+04 
       3.015634905396e-02       2.040836422514e+04 
       3.030018232350e-02       2.032817881374e+04 
       3.044435371306e-02       2.024778647013e+04 
       3.058887154610e-02       2.016762587521e+04 
       3.073374438815e-02       2.008751418938e+04 
       3.087898105535e-02       2.000714435552e+04 
       3.102459062352e-02       1.992679384436e+04 
       3.117058243755e-02       1.984663718438e+04 
       3.131696612120e-02       1.976606017245e+04 
       3.146375158741e-02       1.968584367501e+04 
       3.161094904903e-02       1.960533302295e+04 
       3.175856903005e-02       1.952464990667e+04 
       3.190662237744e-02       1.944421231740e+04 
       3.205512027341e-02       1.936393535623e+04 
       3.220407424839e-02       1.928324206477e+04 
       3.235349619452e-02       1.920278073037e+04 
       3.250339837991e-02       1.912244775254e+04 
       3.265379346353e-02       1.904194726203e+04 
       3.280469451082e-02       1.896151220072e+04 
       3.295611501017e-02       1.888130064467e+04 
       3.310806889013e-02       1.880071035074e+04 
       3.326057053761e-02       1.872042462276e+04 
       3.341363481694e-02       1.863995001334e+04 
       3.356727708991e-02       1.855995386176e+04 
       3.372151323699e-02       1.847961796029e+04 
       3.387635967954e-02       1.839925135453e+04 
       3.403183340329e-02       1.831922612314e+04 
       3.418795198309e-02       1.823896139896e+04 
       3.434473360903e-02       1.815891528811e+04 
       3.450219711401e-02       1.807903141570e+04 
       3.466036200281e-02       1.799903827439e+04 
       3.481924848292e-02       1.791931296334e+04 
       3.497887749705e-02       1.783930683058e+04 
       3.513927075761e-02       1.775956487870e+04 
       3.530045078310e-02       1.767976513160e+04 
       3.546244093684e-02       1.760028847100e+04 
       3.562526546788e-02       1.752057460535e+04 
       3.578894955453e-02       1.744101859061e+04 
       3.595351935042e-02       1.736173620091e+04 
       3.611900203364e-02       1.728221388325e+04 
       3.628542585881e-02       1.720305772145e+04 
       3.645282021260e-02       1.712365613504e+04 
       3.662121567278e-02       1.704443724940e+04 
       3.679064407119e-02       1.696554746406e+04 
       3.696113856088e-02       1.688636171079e+04 
       3.713273368778e-02       1.680753429224e+04 
       3.730546546727e-02       1.672838524170e+04 
       3.747937146600e-02       1.664964458221e+04 
       3.765449088956e-02       1.657084969347e+04 
       3.783086467625e-02       1.649214843538e+04 
       3.800853559765e-02       1.641337252460e+04 
       3.818754836663e-02       1.633472031764e+04 
       3.836794975321e-02       1.625618758192e+04 
       3.854978870926e-02       1.617780045083e+04 
       3.873311650264e-02       1.609933160627e+04 
       3.891798686173e-02       1.602085696185e+04 
       3.910445613135e-02       1.594241326701e+04 
       3.929258344111e-02       1.586411378991e+04 
       3.948243088732e-02       1.578577143734e+04 
       3.967406372996e-02       1.570748779930e+04 
       3.986755060606e-02       1.562933640618e+04 
       4.006296376121e-02       1.555103495098e+04 
       4.026037930101e-02       1.547296719889e+04 
       4.045987746463e-02       1.539461112332e+04 
       4.066154292271e-02       1.531654152374e+04 
       4.086546510235e-02       1.523813165377e+04 
       4.107173854202e-02       1.515996499914e+04 
       4.128046327984e-02       1.508176423850e+04 
       4.149174527897e-02       1.500344337126e+04 
       4.170569689439e-02       1.492513013682e+04 
       4.192243738596e-02       1.484666492259e+04 
       4.214209348329e-02       1.476822064440e+04 
       4.236480000873e-02       1.468978865639e+04 
       4.259070056573e-02       1.461108743471e+04 
       4.281994830090e-02       1.453254923864e+04 
       4.305270674910e-02       1.445363533671e+04 
       4.328915077285e-02       1.437470200115e+04 
       4.352946760836e-02       1.429562546328e+04 
       4.377385803314e-02       1.421640149245e+04 
       4.402253767203e-02       1.413701635803e+04 
       4.427573846162e-02       1.405750363367e+04 
       4.453371029604e-02       1.397772092764e+04 
       4.479672288156e-02       1.389758948005e+04 
       4.506506783157e-02       1.381741751121e+04 
       4.533906103984e-02       1.373671345684e+04 
       4.561904537646e-02       1.365594602949e+04 
       4.590539375945e-02       1.357467562266e+04 
       4.619851266492e-02       1.349304078476e+04 
       4.649884615139e-02       1.341104699570e+04 
       4.680688048879e-02       1.332862061191e+04 
       4.712314950130e-02       1.324570164884e+04 
       4.744824075637e-02       1.316230799818e+04 
       4.778280276067e-02       1.307821830664e+04 
       4.812755335930e-02       1.299364125582e+04 
       4.848328957896e-02       1.290821344023e+04 
       4.885089921159e-02       1.282213987180e+04 
       4.923137450520e-02       1.273520156398e+04 
       4.962582841751e-02       1.264734110931e+04 
       5.003551400067e-02       1.255850916554e+04 
       5.046184762884e-02       1.246850969168e+04 
       5.090643696316e-02       1.237734828690e+04 
       5.137111478142e-02       1.228473498034e+04 
       5.185798009668e-02       1.219063078038e+04 
       5.236944836425e-02       1.209477096782e+04 
       5.290831304853e-02       1.199699729231e+04 
       5.347782140315e-02       1.189706844421e+04 
       5.408176801576e-02       1.179454191133e+04 
       5.472461046061e-02       1.168914010354e+04 
       5.541161220501e-02       1.158042665418e+04 
       5.614901851717e-02       1.146770052819e+04 
       5.694427104545e-02       1.135033498986e+04 
       5.780626498874e-02       1.122738284829e+04 
       5.874564739765e-02       1.109756165784e+04 
       5.977514248012e-02       1.095940912878e+04 
       6.090986348302e-02       1.081081933274e+04 
       6.216752101773e-02       1.064903580798e+04 
