# Matter power spectrum P(k) at redshift z=0
# for k=1.04082e-05 to 1.64718 h/Mpc,
# number of wavenumbers equal to 565
#    1:k (h/Mpc)              2:P (Mpc/h)^3        
       1.040816473117e-05       5.305384796008e+01 
       2.345090916425e-05       1.158927999937e+02 
       3.654020436240e-05       1.775499953470e+02 
       4.971215918584e-05       2.387295886668e+02 
       6.300349042371e-05       2.998273907152e+02 
       7.645185843039e-05       3.611378313930e+02 
       9.009621369473e-05       4.229114851455e+02 
       1.039771590610e-04       4.853785216165e+02 
       1.181373323553e-04       5.487606783660e+02 
       1.326218142066e-04       6.132784853917e+02 
       1.474785658513e-04       6.791562665044e+02 
       1.627589016372e-04       7.466260225089e+02 
       1.785180007259e-04       8.159307368243e+02 
       1.948154620560e-04       8.873273906744e+02 
       2.117159058557e-04       9.610898483285e+02 
       2.292896237301e-04       1.037511702134e+03 
       2.476132773991e-04       1.116909121631e+03 
       2.667706432713e-04       1.199623716192e+03 
       2.868533958863e-04       1.286025388439e+03 
       3.079619174683e-04       1.376515121274e+03 
       3.302061129618e-04       1.471527601234e+03 
       3.537061995223e-04       1.571533532612e+03 
       3.785934260951e-04       1.677041438612e+03 
       4.050106622045e-04       1.788598677393e+03 
       4.331127755223e-04       1.906791323734e+03 
       4.630666959819e-04       2.032242485952e+03 
       4.950510419852e-04       2.165608552041e+03 
       5.292551649169e-04       2.307572803973e+03 
       5.658774569244e-04       2.458835827546e+03 
       6.051227708893e-04       2.620102206163e+03 
       6.471988293970e-04       2.792063153715e+03 
       6.923115600061e-04       2.975368355657e+03 
       7.406593931972e-04       3.170634247076e+03 
       7.924266962707e-04       3.378349267424e+03 
       8.477766793673e-04       3.598911842904e+03 
       9.068442732512e-04       3.832569278658e+03 
       9.697296050218e-04       4.079400722623e+03 
       1.036492745840e-03       4.339295471014e+03 
       1.107150341826e-03       4.611951891997e+03 
       1.181674557660e-03       4.896896264244e+03 
       1.259994487622e-03       5.193456751164e+03 
       1.341999876411e-03       5.500810325555e+03 
       1.427546711152e-03       5.818012042633e+03 
       1.516464055934e-03       6.144042137304e+03 
       1.608561431818e-03       6.477798781361e+03 
       1.703636094107e-03       6.818177017791e+03 
       1.801479692907e-03       7.164080071752e+03 
       1.901883977921e-03       7.514433913845e+03 
       2.004645383062e-03       7.868229712939e+03 
       2.109568471959e-03       8.224502771201e+03 
       2.216468328915e-03       8.582379030709e+03 
       2.325172040443e-03       8.941052766426e+03 
       2.435519437551e-03       9.299789716297e+03 
       2.547363268436e-03       9.657927037595e+03 
       2.660568955178e-03       1.001488100179e+04 
       2.775014064354e-03       1.037012227509e+04 
       2.890587595847e-03       1.072319667463e+04 
       3.007189169841e-03       1.107369569726e+04 
       3.124728170948e-03       1.142126671601e+04 
       3.243122891049e-03       1.176559433398e+04 
       3.362299698830e-03       1.210640955273e+04 
       3.482192253686e-03       1.244348334001e+04 
       3.602740774062e-03       1.277661522343e+04 
       3.723891364951e-03       1.310563624528e+04 
       3.845595405524e-03       1.343040033501e+04 
       3.967808995475e-03       1.375078760671e+04 
       4.090492457099e-03       1.406669139960e+04 
       4.213609889293e-03       1.437803358133e+04 
       4.337128769215e-03       1.468474277101e+04 
       4.461019597272e-03       1.498676928819e+04 
       4.585255581160e-03       1.528407065628e+04 
       4.709812354914e-03       1.557661745717e+04 
       4.834667729206e-03       1.586438964280e+04 
       4.959801469426e-03       1.614737657683e+04 
       5.085195098428e-03       1.642557213855e+04 
       5.210831721122e-03       1.669898046160e+04 
       5.336695868394e-03       1.696760801649e+04 
       5.462773358122e-03       1.723146967557e+04 
       5.589051171302e-03       1.749065103356e+04 
       5.715517341539e-03       1.774504246072e+04 
       5.842160856347e-03       1.799473052654e+04 
       5.968971568902e-03       1.823974712199e+04 
       6.095940119048e-03       1.848012377244e+04 
       6.223057862500e-03       1.871589440813e+04 
       6.350316807312e-03       1.894709508201e+04 
       6.477709556799e-03       1.917376366601e+04 
       6.605229258187e-03       1.939593957234e+04 
       6.732869556358e-03       1.961366351786e+04 
       6.860624552139e-03       1.982697730008e+04 
       6.988488764629e-03       2.003592360876e+04 
       7.116457097144e-03       2.024054587338e+04 
       7.244524806384e-03       2.044088811463e+04 
       7.372687474483e-03       2.063699484399e+04 
       7.500940983655e-03       2.082891096841e+04 
       7.629281493145e-03       2.101668170545e+04 
       7.757705418279e-03       2.120035252523e+04 
       7.886209411369e-03       2.137996907731e+04 
       8.014790344316e-03       2.155557713513e+04 
       8.143445292726e-03       2.172722253938e+04 
       8.272171521398e-03       2.189495112730e+04 
       8.400966471053e-03       2.205880868411e+04 
       8.529827746176e-03       2.221884087489e+04 
       8.658753103883e-03       2.237509318922e+04 
       8.787740443699e-03       2.252761089456e+04 
       8.916787798171e-03       2.267643898041e+04 
       9.045893324250e-03       2.282162213304e+04 
       9.175055295349e-03       2.296320469744e+04 
       9.304272094038e-03       2.310123066817e+04 
       9.433542205315e-03       2.323568666116e+04 
       9.562864210389e-03       2.336672906371e+04 
       9.692236780952e-03       2.349434474942e+04 
       9.821658673884e-03       2.361857631490e+04 
       9.951128726358e-03       2.373946603277e+04 
       1.008064585131e-02       2.385705583003e+04 
       1.021020903326e-02       2.397138730095e+04 
       1.033981732440e-02       2.408250167376e+04 
       1.046946984104e-02       2.419043980543e+04 
       1.059916576024e-02       2.429524215052e+04 
       1.072890431674e-02       2.439694873673e+04 
       1.085868480006e-02       2.449559914159e+04 
       1.098850655185e-02       2.459123247988e+04 
       1.111836896343e-02       2.468388739460e+04 
       1.124827147344e-02       2.477360206179e+04 
       1.137821356577e-02       2.486041420873e+04 
       1.150819476750e-02       2.494436114158e+04 
       1.163821464711e-02       2.502547977816e+04 
       1.176827281271e-02       2.510380668281e+04 
       1.189836891048e-02       2.517937810709e+04 
       1.202850262318e-02       2.525223001697e+04 
       1.215867366874e-02       2.532239810795e+04 
       1.228888179900e-02       2.538991783042e+04 
       1.241912679850e-02       2.545482438652e+04 
       1.254940848337e-02       2.551715271422e+04 
       1.267972670033e-02       2.557693744970e+04 
       1.281008132570e-02       2.563421272584e+04 
       1.294047226450e-02       2.568901182088e+04 
       1.307089944968e-02       2.574136697982e+04 
       1.320136284132e-02       2.579130981097e+04 
       1.333186242593e-02       2.583887195741e+04 
       1.346239821582e-02       2.588408528119e+04 
       1.359297024847e-02       2.592698159213e+04 
       1.372357858602e-02       2.596759249283e+04 
       1.385422331472e-02       2.600594843218e+04 
       1.398490454452e-02       2.604208110981e+04 
       1.411562240861e-02       2.607601881051e+04 
       1.424637706303e-02       2.610779452726e+04 
       1.437716868637e-02       2.613743651547e+04 
       1.450799747942e-02       2.616497414492e+04 
       1.463886366489e-02       2.619043646661e+04 
       1.476976748719e-02       2.621385224069e+04 
       1.490070921220e-02       2.623524992332e+04 
       1.503168912708e-02       2.625465768670e+04 
       1.516270754010e-02       2.627210341287e+04 
       1.529376478053e-02       2.628761471200e+04 
       1.542486119851e-02       2.630121890846e+04 
       1.555599716499e-02       2.631294305152e+04 
       1.568717307164e-02       2.632281395078e+04 
       1.581838933082e-02       2.633085815014e+04 
       1.594964637560e-02       2.633710191455e+04 
       1.608094465971e-02       2.634157123618e+04 
       1.621228465760e-02       2.634429183985e+04 
       1.634366686450e-02       2.634528920383e+04 
       1.647509179644e-02       2.634458856787e+04 
       1.660655999038e-02       2.634221493753e+04 
       1.673807200429e-02       2.633819307242e+04 
       1.686962841728e-02       2.633254749424e+04 
       1.700122982976e-02       2.632530248959e+04 
       1.713287686354e-02       2.631648211239e+04 
       1.726457016208e-02       2.630611018255e+04 
       1.739631039065e-02       2.629421029397e+04 
       1.752809823651e-02       2.628080581843e+04 
       1.765993440919e-02       2.626591989074e+04 
       1.779181964072e-02       2.624957542099e+04 
       1.792375468586e-02       2.623179512313e+04 
       1.805574032242e-02       2.621260150345e+04 
       1.818777735154e-02       2.619201682433e+04 
       1.831986659797e-02       2.617006309807e+04 
       1.845200891046e-02       2.614676211976e+04 
       1.858420516205e-02       2.612213550898e+04 
       1.871645625046e-02       2.609620487154e+04 
       1.884876309845e-02       2.606899114515e+04 
       1.898112665424e-02       2.604051557434e+04 
       1.911354789191e-02       2.601079899995e+04 
       1.924602781181e-02       2.597986204845e+04 
       1.937856744106e-02       2.594772514770e+04 
       1.951116783395e-02       2.591440855463e+04 
       1.964383007247e-02       2.587993232227e+04 
       1.977655526681e-02       2.584431630973e+04 
       1.990934455584e-02       2.580758018874e+04 
       2.004219910771e-02       2.576974344751e+04 
       2.017512012036e-02       2.573082537862e+04 
       2.030810882211e-02       2.569084509413e+04 
       2.044116647227e-02       2.564982151729e+04 
       2.057429436175e-02       2.560777339710e+04 
       2.070749381370e-02       2.556471929254e+04 
       2.084076618418e-02       2.552067758194e+04 
       2.097411286282e-02       2.547566646494e+04 
       2.110753527354e-02       2.542970396693e+04 
       2.124103487530e-02       2.538280793095e+04 
       2.137461316279e-02       2.533499602438e+04 
       2.150827166728e-02       2.528628573654e+04 
       2.164201195736e-02       2.523669438139e+04 
       2.177583563978e-02       2.518623910552e+04 
       2.190974436035e-02       2.513493687423e+04 
       2.204373980473e-02       2.508280448885e+04 
       2.217782369941e-02       2.502985856369e+04 
       2.231199781262e-02       2.497611555907e+04 
       2.244626395527e-02       2.492159175630e+04 
       2.258062398199e-02       2.486630326902e+04 
       2.271507979209e-02       2.481026604010e+04 
       2.284963333071e-02       2.475349584487e+04 
       2.298428658979e-02       2.469600829588e+04 
       2.311904160932e-02       2.463781883281e+04 
       2.325390047838e-02       2.457894272743e+04 
       2.338886533642e-02       2.451939531762e+04 
       2.352393837446e-02       2.445919109444e+04 
       2.365912183635e-02       2.439834506133e+04 
       2.379441802011e-02       2.433687182835e+04 
       2.392982927926e-02       2.427478584627e+04 
       2.406535802422e-02       2.421210140257e+04 
       2.420100672373e-02       2.414883261766e+04 
       2.433677790640e-02       2.408499345609e+04 
       2.447267416216e-02       2.402059771154e+04 
       2.460869814389e-02       2.395565901942e+04 
       2.474485256905e-02       2.389019085721e+04 
       2.488114022135e-02       2.382420653092e+04 
       2.501756395252e-02       2.375771920486e+04 
       2.515412668405e-02       2.369074187440e+04 
       2.529083140912e-02       2.362328735228e+04 
       2.542768119446e-02       2.355536832476e+04 
       2.556467918236e-02       2.348699729378e+04 
       2.570182859271e-02       2.341818661992e+04 
       2.583913272511e-02       2.334894848934e+04 
       2.597659496107e-02       2.327929494071e+04 
       2.611421876625e-02       2.320923785358e+04 
       2.625200769282e-02       2.313878896435e+04 
       2.638996538187e-02       2.306795980855e+04 
       2.652809556592e-02       2.299676180513e+04 
       2.666640207147e-02       2.292520619758e+04 
       2.680488882174e-02       2.285330407114e+04 
       2.694355983939e-02       2.278106635916e+04 
       2.708241924941e-02       2.270850383040e+04 
       2.722147128210e-02       2.263562711108e+04 
       2.736072027613e-02       2.256244665972e+04 
       2.750017068177e-02       2.248897278367e+04 
       2.763982706413e-02       2.241521562940e+04 
       2.777969410663e-02       2.234118519321e+04 
       2.791977661456e-02       2.226689130961e+04 
       2.806007951874e-02       2.219234372931e+04 
       2.820060787935e-02       2.211755185458e+04 
       2.834136688988e-02       2.204252511937e+04 
       2.848236188127e-02       2.196727273596e+04 
       2.862359832618e-02       2.189180376496e+04 
       2.876508184339e-02       2.181612711659e+04 
       2.890681820246e-02       2.174025154169e+04 
       2.904881332847e-02       2.166418563700e+04 
       2.919107330702e-02       2.158793784738e+04 
       2.933360438939e-02       2.151151645710e+04 
       2.947641299795e-02       2.143492959776e+04 
       2.961950573171e-02       2.135818525400e+04 
       2.976288937216e-02       2.128129124618e+04 
       2.990657088935e-02       2.120425524520e+04 
       3.005055744816e-02       2.112708476884e+04 
       3.019485641491e-02       2.104978717273e+04 
       3.033947536420e-02       2.097236966245e+04 
       3.048442208603e-02       2.089483929348e+04 
       3.062970459324e-02       2.081720296716e+04 
       3.077533112930e-02       2.073946741619e+04 
       3.092131017640e-02       2.066163923124e+04 
       3.106765046386e-02       2.058372484308e+04 
       3.121436097702e-02       2.050573052542e+04 
       3.136145096641e-02       2.042766240261e+04 
       3.150892995740e-02       2.034952644593e+04 
       3.165680776028e-02       2.027132845432e+04 
       3.180509448075e-02       2.019307408394e+04 
       3.195380053101e-02       2.011476882863e+04 
       3.210293664119e-02       2.003641802306e+04 
       3.225251387150e-02       1.995802684931e+04 
       3.240254362486e-02       1.987960033802e+04 
       3.255303766010e-02       1.980114334208e+04 
       3.270400810592e-02       1.972266056916e+04 
       3.285546747543e-02       1.964415658420e+04 
       3.300742868143e-02       1.956563572264e+04 
       3.315990505246e-02       1.948710223185e+04 
       3.331291034969e-02       1.940856016982e+04 
       3.346645878460e-02       1.933001343260e+04 
       3.362056503763e-02       1.925146575805e+04 
       3.377524427777e-02       1.917292070220e+04 
       3.393051218317e-02       1.909438167010e+04 
       3.408638496284e-02       1.901585189157e+04 
       3.424287937956e-02       1.893733443353e+04 
       3.440001277396e-02       1.885883219200e+04 
       3.455780308997e-02       1.878034788451e+04 
       3.471626890164e-02       1.870188406679e+04 
       3.487542944148e-02       1.862344310398e+04 
       3.503530463041e-02       1.854502718523e+04 
       3.519591510938e-02       1.846663833905e+04 
       3.535728227287e-02       1.838827840047e+04 
       3.551942830433e-02       1.830994901658e+04 
       3.568237621366e-02       1.823165165741e+04 
       3.584614987704e-02       1.815338759646e+04 
       3.601077407909e-02       1.807515792133e+04 
       3.617627455762e-02       1.799696350971e+04 
       3.634267805116e-02       1.791880505832e+04 
       3.651001234954e-02       1.784068306126e+04 
       3.667830634753e-02       1.776259779803e+04 
       3.684759010211e-02       1.768454934267e+04 
       3.701789489332e-02       1.760653755739e+04 
       3.718925328923e-02       1.752856208577e+04 
       3.736169921516e-02       1.745062232761e+04 
       3.753526802766e-02       1.737271750172e+04 
       3.770999659355e-02       1.729484652287e+04 
       3.788592337439e-02       1.721700811802e+04 
       3.806308851698e-02       1.713920075552e+04 
       3.824153395028e-02       1.706142263117e+04 
       3.842130348937e-02       1.698367169691e+04 
       3.860244294699e-02       1.690594562414e+04 
       3.878500025347e-02       1.682824180654e+04 
       3.896902558565e-02       1.675055734145e+04 
       3.915457150571e-02       1.667288903942e+04 
       3.934169311080e-02       1.659523339016e+04 
       3.953044819448e-02       1.651758655548e+04 
       3.972089742109e-02       1.643994435797e+04 
       3.991310451435e-02       1.636230229195e+04 
       4.010713646151e-02       1.628468705097e+04 
       4.030306373468e-02       1.620702984798e+04 
       4.050096053106e-02       1.612935694511e+04 
       4.070090503395e-02       1.605166225743e+04 
       4.090297969688e-02       1.597393924151e+04 
       4.110727155312e-02       1.589618091099e+04 
       4.131387255352e-02       1.581837977614e+04 
       4.152287993564e-02       1.574052784221e+04 
       4.173439662778e-02       1.566261655496e+04 
       4.194853169190e-02       1.558463679807e+04 
       4.216540080980e-02       1.550657882764e+04 
       4.238512681794e-02       1.542843222870e+04 
       4.260784029649e-02       1.535018592180e+04 
       4.283368021948e-02       1.527182806297e+04 
       4.306279467354e-02       1.519334603043e+04 
       4.329534165412e-02       1.511472633453e+04 
       4.353148994915e-02       1.503595457120e+04 
       4.377142012182e-02       1.495701533479e+04 
       4.401532560587e-02       1.487789216471e+04 
       4.426341392899e-02       1.479856743472e+04 
       4.451590808240e-02       1.471902228333e+04 
       4.477304805761e-02       1.463923646544e+04 
       4.503509257517e-02       1.455918825224e+04 
       4.530232103425e-02       1.447885114677e+04 
       4.557503571699e-02       1.439820626976e+04 
       4.585356428802e-02       1.431722336065e+04 
       4.613826263655e-02       1.423587313015e+04 
       4.642951811776e-02       1.415412387330e+04 
       4.672775326102e-02       1.407194120739e+04 
       4.703343002581e-02       1.398928776837e+04 
       4.734705470282e-02       1.390612281292e+04 
       4.766918357757e-02       1.382240184904e+04 
       4.800042949912e-02       1.373807612048e+04 
       4.834146952737e-02       1.365309201729e+04 
       4.869305387104e-02       1.356739040929e+04 
       4.905601637672e-02       1.348090582006e+04 
       4.943128689047e-02       1.339356545114e+04 
       4.981990588973e-02       1.330528800609e+04 
       5.022304188084e-02       1.321598226025e+04 
       5.064201218057e-02       1.312554528931e+04 
       5.107830785708e-02       1.303386031964e+04 
       5.153362380611e-02       1.294079403713e+04 
       5.200989519307e-02       1.284619316783e+04 
       5.250934181614e-02       1.274988022109e+04 
       5.303452235527e-02       1.265164796069e+04 
       5.358840098437e-02       1.255125231641e+04 
       5.417442945090e-02       1.244840308209e+04 
       5.479664846796e-02       1.234275162587e+04 
       5.545981308096e-02       1.223387451974e+04 
       5.616954744636e-02       1.212125094722e+04 
       5.693253490922e-02       1.200423545423e+04 
       5.775674876872e-02       1.188200997075e+04 
       5.865172640815e-02       1.175353920176e+04 
       5.962888208582e-02       1.161747302831e+04 
       6.070183714854e-02       1.147205881133e+04 
       6.188671319910e-02       1.131499657516e+04 
       6.320227295646e-02       1.114324717703e+04 
