# dimensionless total [l(l+1)/2pi] C_l's
# for l=2 to 2500, i.e. number of multipoles equal to 2499
#
# -> if you prefer output in CAMB/HealPix/LensPix units/order, set 'format' to 'camb' in input file
# -> if you don't want to see such a header, set 'headers' to 'no' in input file
# -> for CMB lensing (phi), these are C_l^phi-phi for the lensing potential.
#    Remember the conversion factors:
#    C_l^dd (deflection) = l(l+1) C_l^phi-phi
#    C_l^gg (shear/convergence) = 1/4 (l(l+1))^2 C_l^phi-phi
#
# 1:l     2:TT                     3:EE                     4:TE                     5:BB                     6:phiphi                 7:TPhi                   8:Ephi               
    2       1.496604411530e-10       5.805069411279e-15       4.459634335724e-13       0.000000000000e+00       8.750731026160e-09       4.879805731651e-10      -2.206901897269e-12 
    3       1.411113530408e-10       8.981836079648e-15       5.610776196998e-13       0.000000000000e+00       5.394977537126e-09       3.463372577464e-10      -1.801669766486e-12 
    4       1.327993418423e-10       1.008497353833e-14       5.992736530807e-13       0.000000000000e+00       3.748152919961e-09       2.625088245346e-10      -1.327428897250e-12 
    5       1.262319807594e-10       9.744819789700e-15       5.988492362761e-13       0.000000000000e+00       2.794724010933e-09       2.075773741793e-10      -9.112694549254e-13 
    6       1.213142822294e-10       8.914902855978e-15       5.822639682544e-13       0.000000000000e+00       2.181679873674e-09       1.691426982980e-10      -5.886893456944e-13 
    7       1.177129616654e-10       8.233933473584e-15       5.628789268234e-13       0.000000000000e+00       1.759336155841e-09       1.409756094210e-10      -3.655730865095e-13 
    8       1.150454214176e-10       7.920295157908e-15       5.470836497777e-13       0.000000000000e+00       1.453555404354e-09       1.195917771972e-10      -2.312459654096e-13 
    9       1.131183850617e-10       7.964412276700e-15       5.371454233785e-13       0.000000000000e+00       1.223802000500e-09       1.029250175384e-10      -1.663642934125e-13 
   10       1.117449990848e-10       8.313492131449e-15       5.329254837420e-13       0.000000000000e+00       1.045916985916e-09       8.966741290327e-11      -1.483337372982e-13 
   11       1.107640707241e-10       8.941053823291e-15       5.332279842486e-13       0.000000000000e+00       8.816135755231e-10       7.912269238941e-11      -1.578344754650e-13 
   12       1.101329242693e-10       9.832937219083e-15       5.362471698799e-13       0.000000000000e+00       7.701284344003e-10       7.017431671527e-11      -1.737810619405e-13 
   13       1.097341368602e-10       1.096013744597e-14       5.402008585013e-13       0.000000000000e+00       6.786315007036e-10       6.266593117149e-11      -1.862841171132e-13 
   14       1.095114466486e-10       1.227579369239e-14       5.438790398697e-13       0.000000000000e+00       6.025141941228e-10       5.625585959579e-11      -1.897950561127e-13 
   15       1.094682111162e-10       1.373081386455e-14       5.463630102264e-13       0.000000000000e+00       5.384593312736e-10       5.084452057916e-11      -1.824668540745e-13 
   16       1.095611536004e-10       1.528758921812e-14       5.470516651495e-13       0.000000000000e+00       4.840097688934e-10       4.621336642958e-11      -1.673723842994e-13 
   17       1.097632356148e-10       1.692150342116e-14       5.457949866156e-13       0.000000000000e+00       4.373099184776e-10       4.214801744072e-11      -1.494942228097e-13 
   18       1.100579996040e-10       1.861505897879e-14       5.425377371479e-13       0.000000000000e+00       3.967827826168e-10       3.856261245073e-11      -1.324237582870e-13 
   19       1.104536171160e-10       2.035521898171e-14       5.375540905913e-13       0.000000000000e+00       3.617842989074e-10       3.542530524560e-11      -1.182778643872e-13 
   20       1.109066233391e-10       2.212907480476e-14       5.310259974146e-13       0.000000000000e+00       3.309653419131e-10       3.263500710850e-11      -1.085724592747e-13 
   21       1.114275823452e-10       2.392927253299e-14       5.230408763947e-13       0.000000000000e+00       3.038405887299e-10       3.017528455116e-11      -1.030460875224e-13 
   22       1.120104559740e-10       2.575081732256e-14       5.135145949142e-13       0.000000000000e+00       2.797593223329e-10       2.801254293774e-11      -1.003880680816e-13 
   23       1.126556867284e-10       2.759044845336e-14       5.024462755848e-13       0.000000000000e+00       2.583893854062e-10       2.609722883726e-11      -9.909264821797e-14 
   24       1.133430113485e-10       2.944594730227e-14       4.897379925480e-13       0.000000000000e+00       2.392358543233e-10       2.435045077117e-11      -9.744898179010e-14 
   25       1.140733808799e-10       3.131471771986e-14       4.752430041465e-13       0.000000000000e+00       2.220730780980e-10       2.274627830455e-11      -9.483579233714e-14 
   26       1.148394629035e-10       3.319456588292e-14       4.587580981532e-13       0.000000000000e+00       2.065901861861e-10       2.126524272781e-11      -9.098272176506e-14 
   27       1.156482192201e-10       3.508406773185e-14       4.403733521984e-13       0.000000000000e+00       1.926012136898e-10       1.991938870906e-11      -8.591972973610e-14 
   28       1.164997971647e-10       3.698227143931e-14       4.202375095117e-13       0.000000000000e+00       1.798646547068e-10       1.871811927155e-11      -7.988776485702e-14 
   29       1.173990311921e-10       3.888745076048e-14       3.984942150450e-13       0.000000000000e+00       1.683149993539e-10       1.764742167898e-11      -7.355687587181e-14 
   30       1.183377855304e-10       4.079788168254e-14       3.752429298725e-13       0.000000000000e+00       1.578275808913e-10       1.667079973555e-11      -6.787568549843e-14 
   31       1.192969106471e-10       4.271198761259e-14       3.505468837843e-13       0.000000000000e+00       1.481877639884e-10       1.574422991910e-11      -6.373651911485e-14 
   32       1.202817656769e-10       4.462770408162e-14       3.245293924910e-13       0.000000000000e+00       1.393456582681e-10       1.486992865649e-11      -6.100003653281e-14 
   33       1.212973112873e-10       4.654286492230e-14       2.973010360471e-13       0.000000000000e+00       1.312388151898e-10       1.406131588437e-11      -5.908838254329e-14 
   34       1.223409441547e-10       4.845537542618e-14       2.689280024845e-13       0.000000000000e+00       1.237538233083e-10       1.332631616558e-11      -5.735640958153e-14 
   35       1.234141493770e-10       5.036328204453e-14       2.394321202560e-13       0.000000000000e+00       1.168522348239e-10       1.265920485742e-11      -5.556388218596e-14 
   36       1.245131043113e-10       5.226471123605e-14       2.087795492737e-13       0.000000000000e+00       1.104784467788e-10       1.204484854045e-11      -5.355759495677e-14 
   37       1.256298470003e-10       5.415786645018e-14       1.769173569827e-13       0.000000000000e+00       1.045492426988e-10       1.146567500956e-11      -5.119989979772e-14 
   38       1.267701876250e-10       5.604111085270e-14       1.439217466177e-13       0.000000000000e+00       9.904920551584e-11       1.092055558539e-11      -4.856048349255e-14 
   39       1.279405449400e-10       5.791289938054e-14       1.098916904645e-13       0.000000000000e+00       9.396082137839e-11       1.041152972572e-11      -4.578812001426e-14 
   40       1.291424671691e-10       5.977174805549e-14       7.490552125774e-14       0.000000000000e+00       8.923546232327e-11       9.938481831220e-12      -4.306156105338e-14 
   41       1.303739470980e-10       6.161629879252e-14       3.902896423954e-14       0.000000000000e+00       8.481030968790e-11       9.499469833250e-12      -4.055438193943e-14 
   42       1.316351691245e-10       6.344555521184e-14       2.349384392827e-15       0.000000000000e+00       8.067227323458e-11       9.092343694176e-12      -3.831158172662e-14 
   43       1.329237320246e-10       6.525871237944e-14      -3.505221781133e-14       0.000000000000e+00       7.681031258491e-11       8.713300835718e-12      -3.633573497987e-14 
   44       1.342325593192e-10       6.705509024680e-14      -7.311331341758e-14       0.000000000000e+00       7.319625751178e-11       8.356223788265e-12      -3.461963005107e-14 
   45       1.355534285333e-10       6.883409208413e-14      -1.117866195633e-13       0.000000000000e+00       6.979485713845e-11       8.014563466481e-12      -3.314461670732e-14 
   46       1.368897793205e-10       7.059506911975e-14      -1.510241619545e-13       0.000000000000e+00       6.660072280065e-11       7.688067206020e-12      -3.187696401091e-14 
   47       1.382470399387e-10       7.233741243166e-14      -1.907921373341e-13       0.000000000000e+00       6.361011058568e-11       7.377768488561e-12      -3.076903913577e-14 
   48       1.396288453112e-10       7.406058528502e-14      -2.310777044427e-13       0.000000000000e+00       6.080977991349e-11       7.084052831806e-12      -2.975922279982e-14 
   49       1.410368555000e-10       7.576411907536e-14      -2.718908423934e-13       0.000000000000e+00       5.817628747681e-11       6.806603558085e-12      -2.877105262937e-14 
   50       1.424712405025e-10       7.744759733417e-14      -3.132457573026e-13       0.000000000000e+00       5.568304142106e-11       6.544644026242e-12      -2.773446800914e-14 
   51       1.439327109153e-10       7.911061203926e-14      -3.550948408759e-13       0.000000000000e+00       5.332535928087e-11       6.297867658354e-12      -2.665833037918e-14 
   52       1.454207246923e-10       8.075278843293e-14      -3.973799979409e-13       0.000000000000e+00       5.110099126930e-11       6.065666615951e-12      -2.557610700555e-14 
   53       1.469327223897e-10       8.237379141412e-14      -4.400524061125e-13       0.000000000000e+00       4.900262172565e-11       5.846818076034e-12      -2.452566904420e-14 
   54       1.484639769963e-10       8.397332091986e-14      -4.830734117323e-13       0.000000000000e+00       4.701752824327e-11       5.639443950892e-12      -2.354947497524e-14 
   55       1.500095617520e-10       8.555114453915e-14      -5.264109204884e-13       0.000000000000e+00       4.513145845154e-11       5.441549196935e-12      -2.268381377406e-14 
   56       1.515711700826e-10       8.710721542281e-14      -5.700254667564e-13       0.000000000000e+00       4.334216905998e-11       5.252885618393e-12      -2.192298493414e-14 
   57       1.531517268492e-10       8.864157557522e-14      -6.138822528921e-13       0.000000000000e+00       4.164865313898e-11       5.073480518555e-12      -2.124654129243e-14 
   58       1.547533526183e-10       9.015431808923e-14      -6.579560560755e-13       0.000000000000e+00       4.004704444000e-11       4.903081325066e-12      -2.062921213943e-14 
   59       1.563772960113e-10       9.164558397821e-14      -7.022319487182e-13       0.000000000000e+00       3.853044084758e-11       4.741137852165e-12      -2.004066040946e-14 
   60       1.580238660534e-10       9.311555900813e-14      -7.467060188710e-13       0.000000000000e+00       3.708872783135e-11       4.586784562928e-12      -1.944523987082e-14 
   61       1.596929113208e-10       9.456439639282e-14      -7.913755785028e-13       0.000000000000e+00       3.571138474377e-11       4.439099543067e-12      -1.881007139747e-14 
   62       1.613855361047e-10       9.599197177007e-14      -8.362055902420e-13       0.000000000000e+00       3.439703919481e-11       4.297989477932e-12      -1.813193945735e-14 
   63       1.631026511643e-10       9.739806735538e-14      -8.811559488374e-13       0.000000000000e+00       3.314575373166e-11       4.163472746144e-12      -1.741602943454e-14 
   64       1.648444116155e-10       9.878243581477e-14      -9.261917075087e-13       0.000000000000e+00       3.195615195277e-11       4.035411456157e-12      -1.666816201189e-14 
   65       1.666101666298e-10       1.001447947444e-13      -9.712834648134e-13       0.000000000000e+00       3.082533660333e-11       3.913502488344e-12      -1.589481431943e-14 
   66       1.683984091326e-10       1.014848211506e-13      -1.016407751511e-12       0.000000000000e+00       2.974880767071e-11       3.797268537089e-12      -1.510314108277e-14 
   67       1.702067255020e-10       1.028021459292e-13      -1.061547417430e-12       0.000000000000e+00       2.872038047992e-11       3.686049152877e-12      -1.430099577152e-14 
   68       1.720327343806e-10       1.040964347244e-13      -1.106686832254e-12       0.000000000000e+00       2.773383595313e-11       3.579175789905e-12      -1.349637224980e-14 
   69       1.738772364453e-10       1.053676618684e-13      -1.151795493907e-12       0.000000000000e+00       2.678844276512e-11       3.476558160172e-12      -1.269555107859e-14 
   70       1.757416154327e-10       1.066158822876e-13      -1.196841778513e-12       0.000000000000e+00       2.588441212611e-11       3.378201143682e-12      -1.190461387156e-14 
   71       1.776268809398e-10       1.078411467828e-13      -1.241798082278e-12       0.000000000000e+00       2.502122769109e-11       3.284027119581e-12      -1.112999577339e-14 
   72       1.795336434196e-10       1.090434987187e-13      -1.286641075717e-12       0.000000000000e+00       2.419760795608e-11       3.193871714273e-12      -1.037849178717e-14 
   73       1.814620891769e-10       1.102229707127e-13      -1.331351957882e-12       0.000000000000e+00       2.341146865452e-11       3.107479549533e-12      -9.657263101993e-15 
   74       1.834119553636e-10       1.113795813236e-13      -1.375916710595e-12       0.000000000000e+00       2.265988515356e-11       3.024499990618e-12      -8.973843420336e-15 
   75       1.853825049748e-10       1.125133317407e-13      -1.420326352670e-12       0.000000000000e+00       2.193905485045e-11       2.944482894382e-12      -8.336145285605e-15 
   76       1.873729487051e-10       1.136241700087e-13      -1.464571479191e-12       0.000000000000e+00       2.124524039294e-11       2.866994507374e-12      -7.750566695970e-15 
   77       1.893838546023e-10       1.147118834894e-13      -1.508624167696e-12       0.000000000000e+00       2.057788103743e-11       2.791998958632e-12      -7.215898351249e-15 
   78       1.914159512375e-10       1.157761806835e-13      -1.552453219051e-12       0.000000000000e+00       1.993698297970e-11       2.719538932327e-12      -6.728311696961e-15 
   79       1.934696880636e-10       1.168167180419e-13      -1.596029714519e-12       0.000000000000e+00       1.932217165649e-11       2.649619930163e-12      -6.283127973098e-15 
   80       1.955452195745e-10       1.178330959895e-13      -1.639327152803e-12       0.000000000000e+00       1.873267425434e-11       2.582208483259e-12      -5.874785586443e-15 
   81       1.976423894636e-10       1.188248549481e-13      -1.682321587081e-12       0.000000000000e+00       1.816730221857e-11       2.517230364039e-12      -5.496807482881e-15 
   82       1.997607147829e-10       1.197914713597e-13      -1.724991762051e-12       0.000000000000e+00       1.762443376217e-11       2.454568798113e-12      -5.141768519721e-15 
   83       2.018993701018e-10       1.207323537100e-13      -1.767319250966e-12       0.000000000000e+00       1.710199637478e-11       2.394062676167e-12      -4.801262838009e-15 
   84       2.040575161446e-10       1.216469172042e-13      -1.809285570578e-12       0.000000000000e+00       1.659797019452e-11       2.335549836697e-12      -4.467629381541e-15 
   85       2.062353829994e-10       1.225348307317e-13      -1.850862676251e-12       0.000000000000e+00       1.611203231796e-11       2.279009075365e-12      -4.139528594356e-15 
   86       2.084333382733e-10       1.233958037422e-13      -1.892021135070e-12       0.000000000000e+00       1.564415428034e-11       2.224438508830e-12      -3.817234698770e-15 
   87       2.106515486764e-10       1.242295086170e-13      -1.932733092812e-12       0.000000000000e+00       1.519409682080e-11       2.171811581629e-12      -3.500956713511e-15 
   88       2.128899699705e-10       1.250355780143e-13      -1.972972360197e-12       0.000000000000e+00       1.476140114533e-11       2.121076035558e-12      -3.190835374722e-15 
   89       2.151483369173e-10       1.258136022142e-13      -2.012714499133e-12       0.000000000000e+00       1.434538018969e-11       2.072152879050e-12      -2.886940056958e-15 
   90       2.174261532271e-10       1.265631264637e-13      -2.051936908967e-12       0.000000000000e+00       1.394510988232e-11       2.024935356556e-12      -2.589265694189e-15 
   91       2.197226815068e-10       1.272836483222e-13      -2.090618912729e-12       0.000000000000e+00       1.355942040728e-11       1.979287917923e-12      -2.297729700799e-15 
   92       2.220369332090e-10       1.279746150063e-13      -2.128741843385e-12       0.000000000000e+00       1.318688746720e-11       1.935045187771e-12      -2.012168892585e-15 
   93       2.243679724697e-10       1.286354847097e-13      -2.166286480267e-12       0.000000000000e+00       1.282617002760e-11       1.892052119316e-12      -1.732490038283e-15 
   94       2.267159017304e-10       1.292659268785e-13      -2.203224730002e-12       0.000000000000e+00       1.247710063398e-11       1.850293602550e-12      -1.459154103213e-15 
   95       2.290810064592e-10       1.298656472889e-13      -2.239526848034e-12       0.000000000000e+00       1.213974368760e-11       1.809782534326e-12      -1.192759482034e-15 
   96       2.314634488033e-10       1.304343250038e-13      -2.275164026168e-12       0.000000000000e+00       1.181405964760e-11       1.770519911738e-12      -9.338939003966e-16 
   97       2.338632618460e-10       1.309716105954e-13      -2.310108442437e-12       0.000000000000e+00       1.149990105010e-11       1.732494366831e-12      -6.831334448084e-16 
   98       2.362803438639e-10       1.314771243691e-13      -2.344333310978e-12       0.000000000000e+00       1.119700852716e-11       1.695681701314e-12      -4.410415924915e-16 
   99       2.387144525843e-10       1.319504545868e-13      -2.377812931909e-12       0.000000000000e+00       1.090500682585e-11       1.660044421268e-12      -2.081682412453e-16 
  100       2.411651994419e-10       1.323911556895e-13      -2.410522741200e-12       0.000000000000e+00       1.062340082722e-11       1.625531271860e-12       1.495126069355e-17 
  101       2.436320438360e-10       1.327987465216e-13      -2.442439360549e-12       0.000000000000e+00       1.035157156537e-11       1.592076772055e-12       2.277970847899e-16 
  102       2.461142873882e-10       1.331727085535e-13      -2.473540647258e-12       0.000000000000e+00       1.008877224642e-11       1.559600749321e-12       4.298658923492e-16 
  103       2.486110681990e-10       1.335124841050e-13      -2.503805744103e-12       0.000000000000e+00       9.834124267580e-12       1.528007874348e-12       6.206718046563e-16 
  104       2.511215592059e-10       1.338175601229e-13      -2.533213149663e-12       0.000000000000e+00       9.586816312533e-12       1.497210291381e-12       7.998893886793e-16 
  105       2.536456061443e-10       1.340877362292e-13      -2.561734524994e-12       0.000000000000e+00       9.346740842180e-12       1.467199992988e-12       9.678025224492e-16 
  106       2.561831654608e-10       1.343228897386e-13      -2.589340139412e-12       0.000000000000e+00       9.113936563108e-12       1.437985400148e-12       1.124918255741e-15 
  107       2.587341044501e-10       1.345228925110e-13      -2.616000803112e-12       0.000000000000e+00       8.888391300871e-12       1.409568930745e-12       1.271832709365e-15 
