# Matter power spectrum P(k) at redshift z=0
# for k=1.0251e-05 to 1.58216 h/Mpc,
# number of wavenumbers equal to 564
#    1:k (h/Mpc)              2:P (Mpc/h)^3        
       1.025095914171e-05       5.428962017874e+01 
       2.317361123443e-05       1.189719706933e+02 
       3.614137683195e-05       1.824284656631e+02 
       4.918937179784e-05       2.453835279833e+02 
       6.235329099928e-05       3.082420758851e+02 
       7.566972864379e-05       3.713040951788e+02 
       8.917650884784e-05       4.348240747447e+02 
       1.029130308635e-04       4.990351647154e+02 
       1.169206334221e-04       5.641614641813e+02 
       1.312429826879e-04       6.304253986482e+02 
       1.459264883219e-04       6.980527958738e+02 
       1.610207520904e-04       7.672768004578e+02 
       1.765790532727e-04       8.383411844137e+02 
       1.926588747332e-04       9.115033503059e+02 
       2.093224728472e-04       9.874687253368e+02 
       2.266374933483e-04       1.065695220964e+03 
       2.446776334407e-04       1.146904819275e+03 
       2.635233479580e-04       1.231429046099e+03 
       2.832625936607e-04       1.319637663916e+03 
       3.039916006232e-04       1.411962474360e+03 
       3.258156526554e-04       1.508770838415e+03 
       3.488498494327e-04       1.610767367373e+03 
       3.732198110768e-04       1.718046995767e+03 
       3.990622710824e-04       1.831441681168e+03 
       4.265254857758e-04       1.951347596406e+03 
       4.557693684850e-04       2.078471268758e+03 
       4.869652357706e-04       2.213434400564e+03 
       5.202950341154e-04       2.357091121542e+03 
       5.559499027513e-04       2.510314800388e+03 
       5.941279279792e-04       2.673378536452e+03 
       6.350309641141e-04       2.847062437573e+03 
       6.788604442368e-04       3.032059561619e+03 
       7.258121866527e-04       3.229011347526e+03 
       7.760703216757e-04       3.438483267650e+03 
       8.298006102956e-04       3.660630076699e+03 
       8.871435817010e-04       3.896218030997e+03 
       9.482080487992e-04       4.145083563352e+03 
       1.013065631646e-03       4.407373789930e+03 
       1.081746894354e-03       4.682667650955e+03 
       1.154239566128e-03       4.970450922742e+03 
       1.230489084925e-03       5.270167305515e+03 
       1.310401415845e-03       5.581071707796e+03 
       1.393847817188e-03       5.902190619954e+03 
       1.480671015036e-03       6.232541391911e+03 
       1.570692141081e-03       6.570971777586e+03 
       1.663717795788e-03       6.916430535845e+03 
       1.759546698377e-03       7.267808971315e+03 
       1.857975538416e-03       7.623946226569e+03 
       1.958803810566e-03       7.983792455612e+03 
       2.061837562883e-03       8.346347101450e+03 
       2.166892102352e-03       8.710705539221e+03 
       2.273793774181e-03       9.075988226740e+03 
       2.382380967943e-03       9.441464796033e+03 
       2.492504512485e-03       9.806413646947e+03 
       2.604027612029e-03       1.017025301293e+04 
       2.716825456332e-03       1.053234137741e+04 
       2.830784614233e-03       1.089224891989e+04 
       2.945802296430e-03       1.124950735199e+04 
       3.061785552138e-03       1.160376843246e+04 
       3.178650446388e-03       1.195467477044e+04 
       3.296321250360e-03       1.230194921195e+04 
       3.414729665995e-03       1.264535645829e+04 
       3.533814097837e-03       1.298467098110e+04 
       3.653518979001e-03       1.331970356093e+04 
       3.773794153949e-03       1.365030552374e+04 
       3.894594317850e-03       1.397634608766e+04 
       4.015878510477e-03       1.429771097623e+04 
       4.137609661442e-03       1.461432228493e+04 
       4.259754182975e-03       1.492609544954e+04 
       4.382281606192e-03       1.523299748931e+04 
       4.505164256779e-03       1.553496588091e+04 
       4.628376966176e-03       1.583196817586e+04 
       4.751896814536e-03       1.612399034762e+04 
       4.875702902048e-03       1.641102215930e+04 
       4.999776145481e-03       1.669305303292e+04 
       5.124099097124e-03       1.697008868736e+04 
       5.248655783576e-03       1.724213205919e+04 
       5.373431562122e-03       1.750921227016e+04 
       5.498412992661e-03       1.777082663312e+04 
       5.623587723415e-03       1.802770588583e+04 
       5.748944388825e-03       1.827972421702e+04 
       5.874472518238e-03       1.852883378221e+04 
       6.000162454160e-03       1.877090730846e+04 
       6.126005278973e-03       1.900835057549e+04 
       6.251992749178e-03       1.924103703751e+04 
       6.378117236311e-03       1.946900813127e+04 
       6.504371673785e-03       1.969230699585e+04 
       6.630749509014e-03       1.991097804420e+04 
       6.757244660232e-03       2.012506519354e+04 
       6.883851477508e-03       2.033461649042e+04 
       7.010564707492e-03       2.054320458581e+04 
       7.137379461509e-03       2.074394858984e+04 
       7.264291186643e-03       2.094032634506e+04 
       7.391295639494e-03       2.113320677076e+04 
       7.518388862345e-03       2.132074433319e+04 
       7.645567161477e-03       2.150453088661e+04 
       7.772827087431e-03       2.168360999093e+04 
       7.900165417014e-03       2.185822549799e+04 
       8.027579136873e-03       2.203097661078e+04 
       8.155065428493e-03       2.219779596677e+04 
       8.282621654478e-03       2.236073802698e+04 
       8.410245345988e-03       2.251979343228e+04 
       8.537934191230e-03       2.267580619897e+04 
       8.665686024895e-03       2.282680767706e+04 
       8.793498818469e-03       2.297451052842e+04 
       8.921370671317e-03       2.311923374368e+04 
       9.049299802492e-03       2.325890189523e+04 
       9.177284543186e-03       2.339491760749e+04 
       9.305323329776e-03       2.352722548627e+04 
       9.433414697417e-03       2.365811964094e+04 
       9.561557274119e-03       2.378279690368e+04 
       9.689749775283e-03       2.390457600955e+04 
       9.817990998651e-03       2.402287921592e+04 
       9.946279819628e-03       2.414093186412e+04 
       1.007461518696e-02       2.425257854799e+04 
       1.020299611874e-02       2.436186594312e+04 
       1.033142169866e-02       2.446726035999e+04 
       1.045989107263e-02       2.456899701193e+04 
       1.058840344551e-02       2.466808681475e+04 
       1.071695807821e-02       2.476464601280e+04 
       1.084555428492e-02       2.485795232073e+04 
       1.097419143053e-02       2.494755970761e+04 
       1.110286892828e-02       2.503397001591e+04 
       1.123158623756e-02       2.511844269244e+04 
       1.136034286182e-02       2.519888564987e+04 
       1.148913834671e-02       2.527637510030e+04 
       1.161797227826e-02       2.535101948265e+04 
       1.174684428125e-02       2.542285383717e+04 
       1.187575401769e-02       2.549465371209e+04 
       1.200470118536e-02       2.556158925084e+04 
       1.213368551650e-02       2.562520318211e+04 
       1.226270677656e-02       2.568615924402e+04 
       1.239176476308e-02       2.574449341402e+04 
       1.252085930461e-02       2.580272826092e+04 
       1.264999025969e-02       2.585599588707e+04 
       1.277915751598e-02       2.590744885386e+04 
       1.290836098939e-02       2.595592055908e+04 
       1.303760062325e-02       2.600163767668e+04 
       1.316687638766e-02       2.604534486241e+04 
       1.329618827874e-02       2.608778555854e+04 
       1.342553631805e-02       2.612631423208e+04 
       1.355492055202e-02       2.616252848996e+04 
       1.368434105138e-02       2.619646101209e+04 
       1.381379791072e-02       2.622837848704e+04 
       1.394329124803e-02       2.626001847346e+04 
       1.407282120432e-02       2.628798422384e+04 
       1.420238794321e-02       2.631329759373e+04 
       1.433199165066e-02       2.633607194565e+04 
       1.446163253461e-02       2.635745811703e+04 
       1.459131082478e-02       2.637742773082e+04 
       1.472102677239e-02       2.639416231689e+04 
       1.485078064999e-02       2.640988158868e+04 
       1.498057275126e-02       2.642263813406e+04 
       1.511040339089e-02       2.643344590277e+04 
       1.524027290440e-02       2.644230570083e+04 
       1.537018164814e-02       2.645122530569e+04 
       1.550012999912e-02       2.645642720479e+04 
       1.563011835502e-02       2.646056716611e+04 
       1.576014713412e-02       2.646147388367e+04 
       1.589021677535e-02       2.646231319396e+04 
       1.602032773824e-02       2.646021633822e+04 
       1.615048050300e-02       2.645648643947e+04 
       1.628067557056e-02       2.645095076988e+04 
       1.641091346265e-02       2.644546369385e+04 
       1.654119472187e-02       2.643713803631e+04 
       1.667151991184e-02       2.642707866419e+04 
       1.680188961730e-02       2.641496288392e+04 
       1.693230444428e-02       2.640076378567e+04 
       1.706276502023e-02       2.638716097834e+04 
       1.719327199426e-02       2.637077575128e+04 
       1.732382603727e-02       2.635299980054e+04 
       1.745442784224e-02       2.633322144913e+04 
       1.758507812439e-02       2.631202837941e+04 
       1.771577762150e-02       2.629025100988e+04 
       1.784652709414e-02       2.626616601279e+04 
       1.797732732594e-02       2.624108238472e+04 
       1.810817912393e-02       2.621519987212e+04 
       1.823908331882e-02       2.618733994862e+04 
       1.837004076537e-02       2.615798262585e+04 
       1.850105234272e-02       2.612774425971e+04 
       1.863211895474e-02       2.609567148931e+04 
       1.876324153046e-02       2.606234506507e+04 
       1.889442102442e-02       2.602778585863e+04 
       1.902565841714e-02       2.599338036820e+04 
       1.915695471550e-02       2.595688367745e+04 
       1.928831095325e-02       2.591890697819e+04 
       1.941972819144e-02       2.587961083607e+04 
       1.955120751894e-02       2.583982263804e+04 
       1.968275005291e-02       2.579873127620e+04 
       1.981435693936e-02       2.575608476893e+04 
       1.994602935370e-02       2.571237074423e+04 
       2.007776850128e-02       2.566760861282e+04 
       2.020957561796e-02       2.562255340289e+04 
       2.034145197078e-02       2.557567131024e+04 
       2.047339885851e-02       2.552903018446e+04 
       2.060541761237e-02       2.548063025105e+04 
       2.073750959662e-02       2.543102197021e+04 
       2.086967620931e-02       2.538055769348e+04 
       2.100191888297e-02       2.532962802496e+04 
       2.113423908534e-02       2.527735775399e+04 
       2.126663832014e-02       2.522417914859e+04 
       2.139911812786e-02       2.517049802834e+04 
       2.153168008654e-02       2.511505200895e+04 
       2.166432581263e-02       2.505986859770e+04 
       2.179705696183e-02       2.500312105189e+04 
       2.192987523002e-02       2.494561171229e+04 
       2.206278235411e-02       2.488796284035e+04 
       2.219578011304e-02       2.482919140830e+04 
       2.232887032872e-02       2.476936943302e+04 
       2.246205486704e-02       2.470975032625e+04 
       2.259533563893e-02       2.464885121306e+04 
       2.272871460140e-02       2.458700138451e+04 
       2.286219375864e-02       2.452480973629e+04 
       2.299577516316e-02       2.446180376793e+04 
       2.312946091699e-02       2.439782460530e+04 
       2.326325317284e-02       2.433318064923e+04 
       2.339715413537e-02       2.426879792854e+04 
       2.353116606249e-02       2.420328284222e+04 
       2.366529126665e-02       2.413697307107e+04 
       2.379953211623e-02       2.407011570919e+04 
       2.393389103694e-02       2.400314854757e+04 
       2.406837051331e-02       2.393483661945e+04 
       2.420297309013e-02       2.386671211697e+04 
       2.433770137405e-02       2.379790180716e+04 
       2.447255803517e-02       2.372823170405e+04 
       2.460754580867e-02       2.365807275732e+04 
       2.474266749655e-02       2.358825101070e+04 
       2.487792596937e-02       2.351759717368e+04 
       2.501332416806e-02       2.344605114589e+04 
       2.514886510584e-02       2.337406865762e+04 
       2.528455187010e-02       2.330237043380e+04 
       2.542038762446e-02       2.322982354880e+04 
       2.555637561082e-02       2.315668213608e+04 
       2.569251915150e-02       2.308319114422e+04 
       2.582882165147e-02       2.300963122485e+04 
       2.596528660061e-02       2.293526899188e+04 
       2.610191757611e-02       2.286088900198e+04 
       2.623871824492e-02       2.278583309007e+04 
       2.637569236625e-02       2.271110372817e+04 
       2.651284379423e-02       2.263568542774e+04 
       2.665017648061e-02       2.255962673831e+04 
       2.678769447757e-02       2.248370294207e+04 
       2.692540194063e-02       2.240738081757e+04 
       2.706330313167e-02       2.233082308334e+04 
       2.720140242204e-02       2.225383186916e+04 
       2.733970429582e-02       2.217643344190e+04 
       2.747821335315e-02       2.209914528393e+04 
       2.761693431371e-02       2.202152552230e+04 
       2.775587202033e-02       2.194342716245e+04 
       2.789503144274e-02       2.186568637736e+04 
       2.803441768143e-02       2.178741505108e+04 
       2.817403597169e-02       2.170878727843e+04 
       2.831389168777e-02       2.163016162862e+04 
       2.845399034725e-02       2.155143019326e+04 
       2.859433761552e-02       2.147239039836e+04 
       2.873493931048e-02       2.139306066474e+04 
       2.887580140738e-02       2.131355253632e+04 
       2.901693004391e-02       2.123418708818e+04 
       2.915833152544e-02       2.115433860596e+04 
       2.930001233049e-02       2.107490975494e+04 
       2.944197911644e-02       2.099482192169e+04 
       2.958423872542e-02       2.091498079711e+04 
       2.972679819050e-02       2.083494358902e+04 
       2.986966474212e-02       2.075473953066e+04 
       3.001284581477e-02       2.067424662627e+04 
       3.015634905396e-02       2.059367349027e+04 
       3.030018232350e-02       2.051334963258e+04 
       3.044435371306e-02       2.043308976300e+04 
       3.058887154610e-02       2.035249726125e+04 
       3.073374438815e-02       2.027174977853e+04 
       3.087898105535e-02       2.019114011414e+04 
       3.102459062352e-02       2.011042748509e+04 
       3.117058243755e-02       2.002946206986e+04 
       3.131696612120e-02       1.994883305028e+04 
       3.146375158741e-02       1.986781008423e+04 
       3.161094904903e-02       1.978701751169e+04 
       3.175856903005e-02       1.970636256143e+04 
       3.190662237744e-02       1.962545812981e+04 
       3.205512027341e-02       1.954439133108e+04 
       3.220407424839e-02       1.946371592403e+04 
       3.235349619452e-02       1.938283259120e+04 
       3.250339837991e-02       1.930184712879e+04 
       3.265379346353e-02       1.922103994284e+04 
       3.280469451082e-02       1.914021000820e+04 
       3.295611501017e-02       1.905920817540e+04 
       3.310806889013e-02       1.897860979340e+04 
       3.326057053761e-02       1.889778514983e+04 
       3.341363481694e-02       1.881720559671e+04 
       3.356727708991e-02       1.873623873376e+04 
       3.372151323699e-02       1.865567752629e+04 
       3.387635967954e-02       1.857522324045e+04 
       3.403183340329e-02       1.849453762777e+04 
       3.418795198309e-02       1.841417183757e+04 
       3.434473360903e-02       1.833370340441e+04 
       3.450219711401e-02       1.825318193582e+04 
       3.466036200281e-02       1.817286968143e+04 
       3.481924848292e-02       1.809241617969e+04 
       3.497887749705e-02       1.801234775006e+04 
       3.513927075761e-02       1.793214980776e+04 
       3.530045078310e-02       1.785212267264e+04 
       3.546244093684e-02       1.777191613711e+04 
       3.562526546788e-02       1.769206507071e+04 
       3.578894955453e-02       1.761219148613e+04 
       3.595351935042e-02       1.753218743659e+04 
       3.611900203364e-02       1.745253317600e+04 
       3.628542585881e-02       1.737267303155e+04 
       3.645282021260e-02       1.729316058862e+04 
       3.662121567278e-02       1.721361414988e+04 
       3.679064407119e-02       1.713402979205e+04 
       3.696113856088e-02       1.705464607547e+04 
       3.713273368778e-02       1.697513093961e+04 
       3.730546546727e-02       1.689605953701e+04 
       3.747937146600e-02       1.681671921225e+04 
       3.765449088956e-02       1.673755176506e+04 
       3.783086467625e-02       1.665841241342e+04 
       3.800853559765e-02       1.657946914797e+04 
       3.818754836663e-02       1.650051526532e+04 
       3.836794975321e-02       1.642155907435e+04 
       3.854978870926e-02       1.634256279580e+04 
       3.873311650264e-02       1.626373981691e+04 
       3.891798686173e-02       1.618501397779e+04 
       3.910445613135e-02       1.610634113900e+04 
       3.929258344111e-02       1.602760947379e+04 
       3.948243088732e-02       1.594898383796e+04 
       3.967406372996e-02       1.587035994529e+04 
       3.986755060606e-02       1.579165981798e+04 
       4.006296376121e-02       1.571313786213e+04 
       4.026037930101e-02       1.563441768326e+04 
       4.045987746463e-02       1.555600058077e+04 
       4.066154292271e-02       1.547730273287e+04 
       4.086546510235e-02       1.539892344306e+04 
       4.107173854202e-02       1.532028524388e+04 
       4.128046327984e-02       1.524163325286e+04 
       4.149174527897e-02       1.516304608467e+04 
       4.170569689439e-02       1.508436872638e+04 
       4.192243738596e-02       1.500574922386e+04 
       4.214209348329e-02       1.492699192597e+04 
       4.236480000873e-02       1.484808404543e+04 
       4.259070056573e-02       1.476928394709e+04 
       4.281994830090e-02       1.469012958956e+04 
       4.305270674910e-02       1.461113699099e+04 
       4.328915077285e-02       1.453192200727e+04 
       4.352946760836e-02       1.445257292666e+04 
       4.377385803314e-02       1.437306811196e+04 
       4.402253767203e-02       1.429338514659e+04 
       4.427573846162e-02       1.421344705416e+04 
       4.453371029604e-02       1.413336555847e+04 
       4.479672288156e-02       1.405316808005e+04 
       4.506506783157e-02       1.397250445224e+04 
       4.533906103984e-02       1.389181783899e+04 
       4.561904537646e-02       1.381058037365e+04 
       4.590539375945e-02       1.372917969276e+04 
       4.619851266492e-02       1.364740886979e+04 
       4.649884615139e-02       1.356519740997e+04 
       4.680688048879e-02       1.348254489218e+04 
       4.712314950130e-02       1.339942822767e+04 
       4.744824075637e-02       1.331574208341e+04 
       4.778280276067e-02       1.323161284784e+04 
       4.812755335930e-02       1.314671771617e+04 
       4.848328957896e-02       1.306131072298e+04 
       4.885089921159e-02       1.297504719555e+04 
       4.923137450520e-02       1.288800344404e+04 
       4.962582841751e-02       1.280006894074e+04 
       5.003551400067e-02       1.271110962335e+04 
       5.046184762884e-02       1.262111704825e+04 
       5.090643696316e-02       1.252983335932e+04 
       5.137111478142e-02       1.243728504142e+04 
       5.185798009668e-02       1.234318668511e+04 
       5.236944836425e-02       1.224743447299e+04 
       5.290831304853e-02       1.214974709626e+04 
       5.347782140315e-02       1.204984428858e+04 
       5.408176801576e-02       1.194756089129e+04 
       5.472461046061e-02       1.184239888673e+04 
       5.541161220501e-02       1.173387833599e+04 
       5.614901851717e-02       1.162154759995e+04 
       5.694427104545e-02       1.150457280358e+04 
       5.780626498874e-02       1.138204556910e+04 
       5.874564739765e-02       1.125286232603e+04 
       5.977514248012e-02       1.111534122170e+04 
       6.090986348302e-02       1.096746412954e+04 
       6.216752101773e-02       1.080653749993e+04 
