# dimensionless total [l(l+1)/2pi] C_l's
# for l=2 to 2500, i.e. number of multipoles equal to 2499
#
# -> if you prefer output in CAMB/HealPix/LensPix units/order, set 'format' to 'camb' in input file
# -> if you don't want to see such a header, set 'headers' to 'no' in input file
# -> for CMB lensing (phi), these are C_l^phi-phi for the lensing potential.
#    Remember the conversion factors:
#    C_l^dd (deflection) = l(l+1) C_l^phi-phi
#    C_l^gg (shear/convergence) = 1/4 (l(l+1))^2 C_l^phi-phi
#
# 1:l     2:TT                     3:EE                     4:TE                     5:BB                     6:phiphi                 7:TPhi                   8:Ephi               
    2       2.146204028811e-10       6.707314595402e-15       5.613519693515e-13       0.000000000000e+00       9.872870193452e-09       7.968796736565e-10      -2.238649757480e-12 
    3       1.875304135367e-10       1.026791095416e-14       6.914474147425e-13       0.000000000000e+00       6.110138932395e-09       5.464584027237e-10      -1.766565742686e-12 
    4       1.671825329312e-10       1.138821090779e-14       7.146502768336e-13       0.000000000000e+00       4.228551260100e-09       4.034340501677e-10      -1.265308109106e-12 
    5       1.527211868722e-10       1.087330909148e-14       6.874170937488e-13       0.000000000000e+00       3.137200567765e-09       3.124343883394e-10      -8.587919021852e-13 
    6       1.423250226739e-10       9.840993004801e-15       6.436884165367e-13       0.000000000000e+00       2.434445668892e-09       2.500141105892e-10      -5.601811897148e-13 
    7       1.347301706045e-10       9.009414152154e-15       6.039342245879e-13       0.000000000000e+00       1.950294403328e-09       2.049369011577e-10      -3.587473195288e-13 
    8       1.290734951701e-10       8.609730958341e-15       5.758127234468e-13       0.000000000000e+00       1.601133220464e-09       1.711570494488e-10      -2.386560701064e-13 
    9       1.247900505031e-10       8.619737697595e-15       5.592670591553e-13       0.000000000000e+00       1.340412058194e-09       1.451137825424e-10      -1.818170281615e-13 
   10       1.215637038752e-10       8.974207430426e-15       5.517400907208e-13       0.000000000000e+00       1.139810905678e-09       1.245821603302e-10      -1.679404392891e-13 
   11       1.191018112214e-10       9.638356923870e-15       5.503961412969e-13       0.000000000000e+00       9.594673793123e-10       1.080591722448e-10      -1.791468788408e-13 
   12       1.172378647987e-10       1.059005489320e-14       5.524194129307e-13       0.000000000000e+00       8.342944806821e-10       9.456808772637e-11      -1.955461533394e-13 
   13       1.158459059883e-10       1.179125982513e-14       5.552584622061e-13       0.000000000000e+00       7.317361205879e-10       8.327737203232e-11      -2.065113073749e-13 
   14       1.147941128318e-10       1.318697967222e-14       5.571652008064e-13       0.000000000000e+00       6.467063294306e-10       7.374869172104e-11      -2.077542854490e-13 
   15       1.140621793879e-10       1.472325295846e-14       5.571719388171e-13       0.000000000000e+00       5.753098549697e-10       6.582123836228e-11      -1.975980754221e-13 
   16       1.135529121433e-10       1.636086741126e-14       5.550111144146e-13       0.000000000000e+00       5.148242137706e-10       5.900781680047e-11      -1.800762157641e-13 
   17       1.132711921761e-10       1.807505671153e-14       5.507489096815e-13       0.000000000000e+00       4.631426232134e-10       5.306663196311e-11      -1.606668834968e-13 
   18       1.131464872647e-10       1.984802293059e-14       5.445126891451e-13       0.000000000000e+00       4.184574264844e-10       4.789682730945e-11      -1.422154142047e-13 
   19       1.131780646015e-10       2.166617527687e-14       5.367199333462e-13       0.000000000000e+00       3.799940996414e-10       4.344896289934e-11      -1.269314709709e-13 
   20       1.133286102806e-10       2.351592141561e-14       5.276530387706e-13       0.000000000000e+00       3.462065574546e-10       3.956722422193e-11      -1.167205763085e-13 
   21       1.135950745485e-10       2.538934302370e-14       5.173869527339e-13       0.000000000000e+00       3.165567081002e-10       3.617182573203e-11      -1.110950641545e-13 
   22       1.139490409945e-10       2.728091555533e-14       5.057458681165e-13       0.000000000000e+00       2.903415706554e-10       3.315223783318e-11      -1.082905442106e-13 
   23       1.143984026911e-10       2.918706068237e-14       4.925965123196e-13       0.000000000000e+00       2.671698517070e-10       3.046897960489e-11      -1.067126312438e-13 
   24       1.149352813185e-10       3.110526954837e-14       4.776952475322e-13       0.000000000000e+00       2.464616828970e-10       2.807285412034e-11      -1.046241350091e-13 
   25       1.155510865023e-10       3.303243480779e-14       4.609135578802e-13       0.000000000000e+00       2.279617475257e-10       2.594037298796e-11      -1.011107002630e-13 
   26       1.162204233357e-10       3.496596093764e-14       4.421084951244e-13       0.000000000000e+00       2.113311550895e-10       2.403247932265e-11      -9.568475695803e-14 
   27       1.169450008784e-10       3.690505046580e-14       4.213540231716e-13       0.000000000000e+00       1.963576266365e-10       2.231289719400e-11      -8.912750988230e-14 
   28       1.177231745322e-10       3.884966511425e-14       3.987711614087e-13       0.000000000000e+00       1.827663965783e-10       2.073651808385e-11      -8.262128709771e-14 
   29       1.185609312191e-10       4.079812428175e-14       3.745681606069e-13       0.000000000000e+00       1.704797023089e-10       1.930003563069e-11      -7.660799565649e-14 
   30       1.194517748689e-10       4.274843554596e-14       3.489517187915e-13       0.000000000000e+00       1.593582885569e-10       1.800148857360e-11      -7.131146627795e-14 
   31       1.203776038014e-10       4.469873570690e-14       3.220826999613e-13       0.000000000000e+00       1.491664006598e-10       1.682728777450e-11      -6.691368879789e-14 
   32       1.213441157173e-10       4.664690011443e-14       2.940596420446e-13       0.000000000000e+00       1.398472482547e-10       1.576774026019e-11      -6.341429329204e-14 
   33       1.223558370501e-10       4.859076686207e-14       2.649140590597e-13       0.000000000000e+00       1.313315422048e-10       1.480496303132e-11      -6.070809240514e-14 
   34       1.234090886566e-10       5.052824668807e-14       2.346290052728e-13       0.000000000000e+00       1.234954383358e-10       1.391503356179e-11      -5.860177955219e-14 
   35       1.245042728622e-10       5.245740502465e-14       2.032199922767e-13       0.000000000000e+00       1.162943237517e-10       1.309388429060e-11      -5.677057080363e-14 
   36       1.256359512200e-10       5.437638723330e-14       1.706703110775e-13       0.000000000000e+00       1.096649465367e-10       1.233923859714e-11      -5.477300552638e-14 
   37       1.267939855802e-10       5.628340418404e-14       1.369466755036e-13       0.000000000000e+00       1.035148551473e-10       1.164516905613e-11      -5.219762495542e-14 
   38       1.279821415030e-10       5.817679790451e-14       1.021483018625e-13       0.000000000000e+00       9.782565990449e-11       1.100865742487e-11      -4.915517718685e-14 
   39       1.292043757477e-10       6.005497923575e-14       6.640019735507e-14       0.000000000000e+00       9.257755618077e-11       1.042447882857e-11      -4.594869738135e-14 
   40       1.304591150831e-10       6.191639713902e-14       2.980970244336e-14       0.000000000000e+00       8.771804731996e-11       9.882973224509e-12      -4.294688907646e-14 
   41       1.317415568668e-10       6.375965337138e-14      -7.533165957041e-15       0.000000000000e+00       8.317976637543e-11       9.373199126626e-12      -4.048844533701e-14 
   42       1.330528642623e-10       6.558391599314e-14      -4.554787173102e-14       0.000000000000e+00       7.894773933971e-11       8.894515694965e-12      -3.854793415702e-14 
   43       1.343929892037e-10       6.738862325846e-14      -8.417332552552e-14       0.000000000000e+00       7.500924285083e-11       8.448150530133e-12      -3.696788187106e-14 
   44       1.357576763661e-10       6.917336872178e-14      -1.233733028766e-13       0.000000000000e+00       7.133364391068e-11       8.033878546159e-12      -3.554626579096e-14 
   45       1.371412943343e-10       7.093781519286e-14      -1.631248761070e-13       0.000000000000e+00       6.788297572684e-11       7.650337595056e-12      -3.408722441678e-14 
   46       1.385472376978e-10       7.268140985623e-14      -2.033735296384e-13       0.000000000000e+00       6.465077401627e-11       7.296386018855e-12      -3.257799435222e-14 
   47       1.399799856452e-10       7.440358114686e-14      -2.440689976452e-13       0.000000000000e+00       6.163244138597e-11       6.969935728476e-12      -3.106001410153e-14 
   48       1.414419676924e-10       7.610380937589e-14      -2.851799474521e-13       0.000000000000e+00       5.881355560013e-11       6.667446850977e-12      -2.958017509296e-14 
   49       1.429333671032e-10       7.778162020354e-14      -3.266957353326e-13       0.000000000000e+00       5.616914355545e-11       6.383826668604e-12      -2.819105156290e-14 
   50       1.444528735176e-10       7.943660474342e-14      -3.686132865498e-13       0.000000000000e+00       5.367102519615e-11       6.113831202252e-12      -2.693966509210e-14 
   51       1.460006377395e-10       8.106850145166e-14      -4.108894636398e-13       0.000000000000e+00       5.131387968863e-11       5.856952929961e-12      -2.582964953452e-14 
   52       1.475757791937e-10       8.267712518321e-14      -4.534788040419e-13       0.000000000000e+00       4.909499963723e-11       5.613685094304e-12      -2.484921355494e-14 
   53       1.491753585108e-10       8.426233735451e-14      -4.963482965597e-13       0.000000000000e+00       4.700650148903e-11       5.384105385614e-12      -2.398140606483e-14 
   54       1.507942256171e-10       8.582404066966e-14      -5.394784371241e-13       0.000000000000e+00       4.503497927112e-11       5.167845593710e-12      -2.320380656067e-14 
   55       1.524270707943e-10       8.736220144759e-14      -5.828545661857e-13       0.000000000000e+00       4.316548398429e-11       4.964272257549e-12      -2.249193634915e-14 
   56       1.540755225454e-10       8.887693518058e-14      -6.264359422083e-13       0.000000000000e+00       4.139541268243e-11       4.773150691944e-12      -2.183119398558e-14 
   57       1.557425469079e-10       9.036843299275e-14      -6.701808346183e-13       0.000000000000e+00       3.972346323223e-11       4.594092761948e-12      -2.120734245797e-14 
   58       1.574303343269e-10       9.183693179428e-14      -7.140562314407e-13       0.000000000000e+00       3.814543709271e-11       4.426338691626e-12      -2.060288696969e-14 
   59       1.591402335746e-10       9.328271008287e-14      -7.580385164229e-13       0.000000000000e+00       3.665406158453e-11       4.268734936473e-12      -1.999691024749e-14 
   60       1.608726856694e-10       9.470608374531e-14      -8.021141461607e-13       0.000000000000e+00       3.523881215934e-11       4.119712055843e-12      -1.936490784944e-14 
   61       1.626276685506e-10       9.610733440008e-14      -8.462724836745e-13       0.000000000000e+00       3.388877585521e-11       3.977685413413e-12      -1.868476973374e-14 
   62       1.644062972301e-10       9.748648512781e-14      -8.904808875691e-13       0.000000000000e+00       3.260239481250e-11       3.842412439465e-12      -1.795666648280e-14 
   63       1.662094671851e-10       9.884346672176e-14      -9.347052074919e-13       0.000000000000e+00       3.137960436165e-11       3.713902141378e-12      -1.718735482076e-14 
   64       1.680373264106e-10       1.001781744914e-13      -9.789175540474e-13       0.000000000000e+00       3.021890519824e-11       3.592010619657e-12      -1.638445495971e-14 
   65       1.698892255444e-10       1.014904619235e-13      -1.023096727053e-12       0.000000000000e+00       2.911728214691e-11       3.476432356359e-12      -1.555648092382e-14 
   66       1.717636679924e-10       1.027801343433e-13      -1.067228643792e-12       0.000000000000e+00       2.807012292517e-11       3.366691503544e-12      -1.471287087354e-14 
   67       1.736582600543e-10       1.040469425755e-13      -1.111306767271e-12       0.000000000000e+00       2.707113690731e-11       3.262133171701e-12      -1.386401742984e-14 
   68       1.755706323812e-10       1.052906713983e-13      -1.155324974086e-12       0.000000000000e+00       2.611400675016e-11       3.162092269161e-12      -1.302017306024e-14 
   69       1.775015326503e-10       1.065114398865e-13      -1.199253522592e-12       0.000000000000e+00       2.519791347494e-11       3.066459220139e-12      -1.218784089727e-14 
   70       1.794522728294e-10       1.077094508176e-13      -1.243058962220e-12       0.000000000000e+00       2.432299012015e-11       2.975213752912e-12      -1.137270372038e-14 
   71       1.814237887074e-10       1.088848974201e-13      -1.286711493688e-12       0.000000000000e+00       2.348865167941e-11       2.888253395359e-12      -1.058068571325e-14 
   72       1.834166148612e-10       1.100379594585e-13      -1.330185203904e-12       0.000000000000e+00       2.269355818401e-11       2.805389304347e-12      -9.817954017120e-15 
   73       1.854308596234e-10       1.111687993187e-13      -1.373458300857e-12       0.000000000000e+00       2.193557778553e-11       2.726342095116e-12      -9.090920284246e-15 
   74       1.874661800500e-10       1.122775580938e-13      -1.416513348513e-12       0.000000000000e+00       2.121174983843e-11       2.650737670656e-12      -8.406242231271e-15 
   75       1.895217568879e-10       1.133643516694e-13      -1.459337501708e-12       0.000000000000e+00       2.051824798261e-11       2.578103051096e-12      -7.770825192638e-15 
   76       1.915967072676e-10       1.144292405117e-13      -1.501918331120e-12       0.000000000000e+00       1.985131689995e-11       2.507981626714e-12      -7.189978433736e-15 
   77       1.936914650004e-10       1.154721413245e-13      -1.544229899983e-12       0.000000000000e+00       1.921036140258e-11       2.440312400032e-12      -6.661492511918e-15 
   78       1.958066076757e-10       1.164928920957e-13      -1.586244563352e-12       0.000000000000e+00       1.859535620042e-11       2.375112644480e-12      -6.180479698128e-15 
   79       1.979424254684e-10       1.174912725837e-13      -1.627937294916e-12       0.000000000000e+00       1.800590552352e-11       2.312362922038e-12      -5.741087706417e-15 
   80       2.000989050821e-10       1.184669998639e-13      -1.669285831464e-12       0.000000000000e+00       1.744122617061e-11       2.252005361498e-12      -5.336463409193e-15 
   81       2.022757136934e-10       1.194197238746e-13      -1.710270817348e-12       0.000000000000e+00       1.690013055765e-11       2.193941936723e-12      -4.958716552481e-15 
   82       2.044721828942e-10       1.203490229638e-13      -1.750875948949e-12       0.000000000000e+00       1.638100976644e-11       2.138032744912e-12      -4.598883471173e-15 
   83       2.066872926361e-10       1.212543994347e-13      -1.791088119143e-12       0.000000000000e+00       1.588181659312e-11       2.084094284861e-12      -4.246890804287e-15 
   84       2.089200458031e-10       1.221353576352e-13      -1.830894029907e-12       0.000000000000e+00       1.540055735407e-11       2.031946286168e-12      -3.893862779354e-15 
   85       2.111706984497e-10       1.229916628554e-13      -1.870269068456e-12       0.000000000000e+00       1.493689811236e-11       1.981564888139e-12      -3.539562029183e-15 
   86       2.134397050195e-10       1.238231173831e-13      -1.909186843301e-12       0.000000000000e+00       1.449079488807e-11       1.932951816047e-12      -3.186121513908e-15 
   87       2.157273364976e-10       1.246294787565e-13      -1.947622635999e-12       0.000000000000e+00       1.406200029907e-11       1.886087195581e-12      -2.835813683974e-15 
   88       2.180336709191e-10       1.254104566970e-13      -1.985553486263e-12       0.000000000000e+00       1.365005516019e-11       1.840928647089e-12      -2.491053583107e-15 
   89       2.203585838782e-10       1.261657100434e-13      -2.022958277066e-12       0.000000000000e+00       1.325428008224e-11       1.797410379820e-12      -2.154401951292e-15 
   90       2.227017390361e-10       1.268948436847e-13      -2.059817819747e-12       0.000000000000e+00       1.287376707120e-11       1.755442286173e-12      -1.828568327737e-15 
   91       2.250625786303e-10       1.275974054942e-13      -2.096114939121e-12       0.000000000000e+00       1.250737112728e-11       1.714909035934e-12      -1.516414153850e-15 
   92       2.274403139831e-10       1.282728832627e-13      -2.131834558579e-12       0.000000000000e+00       1.215370184401e-11       1.675669170525e-12      -1.220955876211e-15 
   93       2.298341854708e-10       1.289207745131e-13      -2.166960896179e-12       0.000000000000e+00       1.181145053299e-11       1.637589124577e-12      -9.446775691586e-16 
   94       2.322443077726e-10       1.295408146155e-13      -2.201468385630e-12       0.000000000000e+00       1.148044612467e-11       1.600653111173e-12      -6.873438042868e-16 
   95       2.346709347903e-10       1.301327774708e-13      -2.235329540824e-12       0.000000000000e+00       1.116074328163e-11       1.564868165600e-12      -4.478620428534e-16 
   96       2.371141958002e-10       1.306964036480e-13      -2.268517768026e-12       0.000000000000e+00       1.085229727869e-11       1.530230269986e-12      -2.249375168467e-16 
   97       2.395740896598e-10       1.312313983183e-13      -2.301007411329e-12       0.000000000000e+00       1.055496020777e-11       1.496723926978e-12      -1.706685384774e-17 
   98       2.420504790163e-10       1.317374291889e-13      -2.332773798100e-12       0.000000000000e+00       1.026847718261e-11       1.464321733433e-12       1.774682981093e-16 
   99       2.445430845134e-10       1.322141244371e-13      -2.363793284431e-12       0.000000000000e+00       9.992482543687e-12       1.432983954104e-12       3.606076456758e-16 
  100       2.470514789992e-10       1.326610706440e-13      -2.394043300587e-12       0.000000000000e+00       9.726496062934e-12       1.402658095321e-12       5.345186253276e-16 
  101       2.495750817333e-10       1.330778107287e-13      -2.423502396455e-12       0.000000000000e+00       9.469919148599e-12       1.373278478681e-12       7.016027785043e-16 
  102       2.521131525949e-10       1.334638418820e-13      -2.452150286997e-12       0.000000000000e+00       9.222031050038e-12       1.344765814729e-12       8.645021267478e-16 
  103       2.546647862898e-10       1.338186135006e-13      -2.479967897695e-12       0.000000000000e+00       8.981985062527e-12       1.317026776650e-12       1.026105546842e-15 
  104       2.572291218555e-10       1.341416167986e-13      -2.506935602087e-12       0.000000000000e+00       8.748999285099e-12       1.289975941681e-12       1.188888598131e-15 
  105       2.598060158843e-10       1.344326718805e-13      -2.533027565333e-12       0.000000000000e+00       8.522966415659e-12       1.263605909188e-12       1.352817708389e-15 
  106       2.623954498672e-10       1.346916757761e-13      -2.558216717722e-12       0.000000000000e+00       8.303919638459e-12       1.237925903844e-12       1.517173441110e-15 
  107       2.649973196323e-10       1.349185131802e-13      -2.582476519625e-12       0.000000000000e+00       8.091843789734e-12       1.212940075390e-12       1.681190823554e-15 
