# Matter power spectrum P(k) at redshift z=0
# for k=8.74422e-06 to 1.57751 h/Mpc,
# number of wavenumbers equal to 554
#    1:k (h/Mpc)              2:P (Mpc/h)^3        
       8.744222696063e-06       8.265564394924e+01 
       2.072333925338e-05       1.895266366862e+02 
       3.273664945502e-05       2.941466800659e+02 
       4.481209410194e-05       3.977055785646e+02 
       5.697799696447e-05       5.014923342140e+02 
       6.926328331997e-05       6.022926806572e+02 
       8.169770437004e-05       7.054228479331e+02 
       9.431207015302e-05       8.141111111030e+02 
       1.071384935874e-04       9.195397897012e+02 
       1.202106483082e-04       1.028095151399e+03 
       1.335640429760e-04       1.136903637541e+03 
       1.472363147364e-04       1.246560508633e+03 
       1.612675444584e-04       1.362792887500e+03 
       1.757005962601e-04       1.480094098133e+03 
       1.905814835958e-04       1.596475372165e+03 
       2.059597637851e-04       1.721125910803e+03 
       2.218889622352e-04       1.847135532656e+03 
       2.384270266681e-04       1.972742069410e+03 
       2.556368102979e-04       2.116202002817e+03 
       2.735865809780e-04       2.251984259518e+03 
       2.923505506954e-04       2.409332634383e+03 
       3.120094162453e-04       2.558566043933e+03 
       3.326508972610e-04       2.717424612204e+03 
       3.543702518262e-04       2.894215385804e+03 
       3.772707424664e-04       3.065357939464e+03 
       4.014640163581e-04       3.249446887198e+03 
       4.270703531933e-04       3.442243041442e+03 
       4.542187226990e-04       3.654676102743e+03 
       4.830465821687e-04       3.879393106717e+03 
       5.136993339669e-04       4.107686315313e+03 
       5.463293560314e-04       4.356166525268e+03 
       5.810945179519e-04       4.616618666234e+03 
       6.181561050089e-04       4.890883851121e+03 
       6.576760966094e-04       5.182140738604e+03 
       6.998137872577e-04       5.489876259492e+03 
       7.447217989648e-04       5.815136515793e+03 
       7.925416116032e-04       6.158607023262e+03 
       8.433988247871e-04       6.520493509318e+03 
       8.973984483168e-04       6.901096200735e+03 
       9.546205804573e-04       7.300082875414e+03 
       1.015116855769e-03       7.717422899060e+03 
       1.078908012753e-03       8.152089688892e+03 
       1.145982842350e-03       8.604798192391e+03 
       1.216298641258e-03       9.072459157399e+03 
       1.289783132160e-03       9.554267688652e+03 
       1.366337656673e-03       1.004910674234e+04 
       1.445841325382e-03       1.055658518969e+04 
       1.528155742289e-03       1.107321516307e+04 
       1.613129913864e-03       1.159797002207e+04 
       1.700604997247e-03       1.212930580816e+04 
       1.790418620870e-03       1.266528273670e+04 
       1.882408603519e-03       1.320446789505e+04 
       1.976415987493e-03       1.374549129441e+04 
       2.072287376081e-03       1.428624676386e+04 
       2.169876619857e-03       1.482763304870e+04 
       2.269045929856e-03       1.536612426161e+04 
       2.369666511620e-03       1.590163891899e+04 
       2.471618816707e-03       1.643307528759e+04 
       2.574792502140e-03       1.695977825340e+04 
       2.679086177173e-03       1.748053157978e+04 
       2.784407003755e-03       1.799534871794e+04 
       2.890670203866e-03       1.850347093466e+04 
       2.997798514909e-03       1.900462227142e+04 
       3.105721623898e-03       1.949794447350e+04 
       3.214375602616e-03       1.998301482642e+04 
       3.323702359046e-03       2.046032324734e+04 
       3.433649115116e-03       2.092871410453e+04 
       3.544167916774e-03       2.138849140201e+04 
       3.655215179530e-03       2.183986792976e+04 
       3.766751270495e-03       2.228202677873e+04 
       3.878740126523e-03       2.271514098790e+04 
       3.991148907119e-03       2.313902260327e+04 
       4.103947680179e-03       2.355387518718e+04 
       4.217109138315e-03       2.395974758261e+04 
       4.330608343338e-03       2.435617184589e+04 
       4.444422496505e-03       2.474378825166e+04 
       4.558530732140e-03       2.510416179099e+04 
       4.672913932392e-03       2.548545460307e+04 
       4.787554561035e-03       2.582942290799e+04 
       4.902436514355e-03       2.620208966649e+04 
       5.017544987366e-03       2.654391863553e+04 
       5.132866353723e-03       2.686499248604e+04 
       5.248388057900e-03       2.720141198305e+04 
       5.364098518302e-03       2.751320646408e+04 
       5.479987040161e-03       2.782035755806e+04 
       5.596043737148e-03       2.812442941477e+04 
       5.712259460785e-03       2.841456036540e+04 
       5.828625736804e-03       2.869304475846e+04 
       5.945134707737e-03       2.897681248096e+04 
       6.061779081054e-03       2.924872739291e+04 
       6.178552082279e-03       2.950893138270e+04 
       6.295447412556e-03       2.976347581082e+04 
       6.412459210208e-03       2.999125899433e+04 
       6.529582015863e-03       3.021650263667e+04 
       6.646810740802e-03       3.044968579519e+04 
       6.764140638185e-03       3.070003591039e+04 
       6.881567276871e-03       3.090962675875e+04 
       6.999086517578e-03       3.112100523311e+04 
       7.116694491137e-03       3.131741239333e+04 
       7.234387578655e-03       3.151878606524e+04 
       7.352162393386e-03       3.169828567368e+04 
       7.470015764151e-03       3.186946254734e+04 
       7.587944720161e-03       3.203211712633e+04 
       7.705946477110e-03       3.222349251477e+04 
       7.824018424419e-03       3.236607418911e+04 
       7.942158113525e-03       3.252355502651e+04 
       8.060363247119e-03       3.269952339944e+04 
       8.178631669249e-03       3.284521212623e+04 
       8.296961356207e-03       3.298497422735e+04 
       8.415350408138e-03       3.311542169159e+04 
       8.533797041298e-03       3.323941674043e+04 
       8.652299580912e-03       3.336855763460e+04 
       8.770856454574e-03       3.348320251744e+04 
       8.889466186159e-03       3.359201954797e+04 
       9.008127390172e-03       3.369918419629e+04 
       9.126838766539e-03       3.377761365540e+04 
       9.245599095768e-03       3.389889162330e+04 
       9.364407234472e-03       3.398975798481e+04 
       9.483262111211e-03       3.405620836614e+04 
       9.602162722640e-03       3.415383327921e+04 
       9.721108129930e-03       3.422775057386e+04 
       9.840097455442e-03       3.428740223113e+04 
       9.959129879641e-03       3.435956208210e+04 
       1.007820463822e-02       3.442686252615e+04 
       1.019732101942e-02       3.448504264307e+04 
       1.031647836158e-02       3.453923796514e+04 
       1.043567605077e-02       3.458714093398e+04 
       1.055491351867e-02       3.462493298787e+04 
       1.067419024057e-02       3.467613707716e+04 
       1.079350573347e-02       3.470590751949e+04 
       1.091285955436e-02       3.473124365672e+04 
       1.103225129862e-02       3.475678143111e+04 
       1.115168059845e-02       3.478403570858e+04 
       1.127114712151e-02       3.480069048882e+04 
       1.139065056960e-02       3.482625682085e+04 
       1.151019067742e-02       3.484982121214e+04 
       1.162976721147e-02       3.486120183029e+04 
       1.174937996894e-02       3.486691846184e+04 
       1.186902877676e-02       3.486574185821e+04 
       1.198871349069e-02       3.486526122620e+04 
       1.210843399446e-02       3.485808049558e+04 
       1.222819019894e-02       3.486068713076e+04 
       1.234798204149e-02       3.484534679507e+04 
       1.246780948522e-02       3.483389907993e+04 
       1.258767251837e-02       3.480825148694e+04 
       1.270757115376e-02       3.479999557756e+04 
       1.282750542822e-02       3.477308466090e+04 
       1.294747540214e-02       3.474918469202e+04 
       1.306748115898e-02       3.471588143555e+04 
       1.318752280487e-02       3.469117436058e+04 
       1.330760046826e-02       3.465620793774e+04 
       1.342771429956e-02       3.462310843770e+04 
       1.354786447082e-02       3.457702318839e+04 
       1.366805117547e-02       3.453325724068e+04 
       1.378827462810e-02       3.449029496785e+04 
       1.390853506418e-02       3.445052725181e+04 
       1.402883273994e-02       3.439998049376e+04 
       1.414916793216e-02       3.434783341753e+04 
       1.426954093805e-02       3.428842237630e+04 
       1.438995207516e-02       3.422750412629e+04 
       1.451040168124e-02       3.417305175326e+04 
       1.463089011422e-02       3.411297120001e+04 
       1.475141775213e-02       3.404510951712e+04 
       1.487198499312e-02       3.398916031513e+04 
       1.499259225542e-02       3.392215004143e+04 
       1.511323997735e-02       3.385042785474e+04 
       1.523392861742e-02       3.377299216602e+04 
       1.535465865432e-02       3.370518409366e+04 
       1.547543058700e-02       3.363242132248e+04 
       1.559624493481e-02       3.354862643366e+04 
       1.571710223757e-02       3.346462481658e+04 
       1.583800305571e-02       3.338397272015e+04 
       1.595894797042e-02       3.330297515715e+04 
       1.607993758379e-02       3.322721830642e+04 
       1.620097251904e-02       3.314020245423e+04 
       1.632205342063e-02       3.305044253801e+04 
       1.644318095459e-02       3.295717840931e+04 
       1.656435580863e-02       3.286663144861e+04 
       1.668557869247e-02       3.277812373833e+04 
       1.680685033805e-02       3.268197839614e+04 
       1.692817149984e-02       3.258607324740e+04 
       1.704954295512e-02       3.248549657565e+04 
       1.717096550428e-02       3.238498229250e+04 
       1.729243997118e-02       3.229392000907e+04 
       1.741396720343e-02       3.218765092761e+04 
       1.753554807283e-02       3.208571499027e+04 
       1.765718347567e-02       3.198535215301e+04 
       1.777887433319e-02       3.187472801389e+04 
       1.790062159192e-02       3.176754564147e+04 
       1.802242622417e-02       3.166578737642e+04 
       1.814428922841e-02       3.155761251558e+04 
       1.826621162981e-02       3.144819952706e+04 
       1.838819448064e-02       3.133432322871e+04 
       1.851023886080e-02       3.122402763139e+04 
       1.863234587837e-02       3.110896859214e+04 
       1.875451667007e-02       3.099983822071e+04 
       1.887675240188e-02       3.088471154569e+04 
       1.899905426958e-02       3.076648300279e+04 
       1.912142349933e-02       3.065194543357e+04 
       1.924386134832e-02       3.053377783115e+04 
       1.936636910537e-02       3.041660664831e+04 
       1.948894809162e-02       3.029681869741e+04 
       1.961159966116e-02       3.017663232468e+04 
       1.973432520177e-02       3.005376408308e+04 
       1.985712613561e-02       2.993030162732e+04 
       1.998000391999e-02       2.981259777857e+04 
       2.010296004812e-02       2.968497640272e+04 
       2.022599604992e-02       2.956383794594e+04 
       2.034911349282e-02       2.944079877182e+04 
       2.047231398263e-02       2.931670875165e+04 
       2.059559916438e-02       2.919086104758e+04 
       2.071897072326e-02       2.906453005698e+04 
       2.084243038550e-02       2.893742893947e+04 
       2.096597991937e-02       2.881132161263e+04 
       2.108962113614e-02       2.868025008204e+04 
       2.121335589112e-02       2.855474154255e+04 
       2.133718608468e-02       2.842776433675e+04 
       2.146111366339e-02       2.829767470833e+04 
       2.158514062107e-02       2.816881487683e+04 
       2.170926899999e-02       2.803810357409e+04 
       2.183350089205e-02       2.790938286398e+04 
       2.195783844001e-02       2.777868531524e+04 
       2.208228383875e-02       2.764775420492e+04 
       2.220683933659e-02       2.751762471830e+04 
       2.233150723661e-02       2.738419105718e+04 
       2.245628989809e-02       2.725446021901e+04 
       2.258118973794e-02       2.711993132654e+04 
       2.270620923213e-02       2.698875638495e+04 
       2.283135091729e-02       2.685512794784e+04 
       2.295661739227e-02       2.672491233236e+04 
       2.308201131977e-02       2.659291876075e+04 
       2.320753542802e-02       2.645940995972e+04 
       2.333319251255e-02       2.632490786546e+04 
       2.345898543799e-02       2.619275630631e+04 
       2.358491713990e-02       2.605901721509e+04 
       2.371099062673e-02       2.592829732932e+04 
       2.383720898182e-02       2.579307402870e+04 
       2.396357536540e-02       2.566088288970e+04 
       2.409009301678e-02       2.552782343118e+04 
       2.421676525653e-02       2.539472578216e+04 
       2.434359548875e-02       2.526064758609e+04 
       2.447058720342e-02       2.512745160461e+04 
       2.459774397886e-02       2.499155190537e+04 
       2.472506948426e-02       2.486056871922e+04 
       2.485256748223e-02       2.472625734936e+04 
       2.498024183160e-02       2.459378462936e+04 
       2.510809649015e-02       2.446091970316e+04 
       2.523613551754e-02       2.432673280083e+04 
       2.536436307833e-02       2.419388736274e+04 
       2.549278344507e-02       2.406245963133e+04 
       2.562140100157e-02       2.392988961968e+04 
       2.575022024620e-02       2.379528267356e+04 
       2.587924579545e-02       2.366374805418e+04 
       2.600848238744e-02       2.353154648213e+04 
       2.613793488576e-02       2.340045914755e+04 
       2.626760828328e-02       2.326895114496e+04 
       2.639750770623e-02       2.313683180341e+04 
       2.652763841841e-02       2.300396380543e+04 
       2.665800582548e-02       2.287266330369e+04 
       2.678861547955e-02       2.274327299340e+04 
       2.691947308386e-02       2.261224483451e+04 
       2.705058449769e-02       2.248202301223e+04 
       2.718195574141e-02       2.235092443272e+04 
       2.731359300184e-02       2.222217170705e+04 
       2.744550263771e-02       2.209193004648e+04 
       2.757769118543e-02       2.196347566533e+04 
       2.771016536505e-02       2.183372464962e+04 
       2.784293208651e-02       2.170451627264e+04 
       2.797599845611e-02       2.157619230501e+04 
       2.810937178330e-02       2.144873028212e+04 
       2.824305958769e-02       2.132051894027e+04 
       2.837706960650e-02       2.119290507352e+04 
       2.851140980216e-02       2.106696800730e+04 
       2.864608837038e-02       2.093896096596e+04 
       2.878111374852e-02       2.081391955962e+04 
       2.891649462435e-02       2.068644280367e+04 
       2.905223994518e-02       2.056160701140e+04 
       2.918835892747e-02       2.043710830434e+04 
       2.932486106681e-02       2.031256709697e+04 
       2.946175614840e-02       2.018799528204e+04 
       2.959905425804e-02       2.006298335892e+04 
       2.973676579360e-02       1.993955843329e+04 
       2.987490147705e-02       1.981632252556e+04 
       3.001347236709e-02       1.969438405799e+04 
       3.015248987241e-02       1.957205220730e+04 
       3.029196576551e-02       1.945023427793e+04 
       3.043191219734e-02       1.932901038660e+04 
       3.057234171258e-02       1.920785816763e+04 
       3.071326726573e-02       1.908709132726e+04 
       3.085470223802e-02       1.896727592952e+04 
       3.099666045517e-02       1.884772171878e+04 
       3.113915620615e-02       1.872779546577e+04 
       3.128220426284e-02       1.860908256108e+04 
       3.142581990082e-02       1.849026368875e+04 
       3.157001892120e-02       1.837221570265e+04 
       3.171481767373e-02       1.825540645444e+04 
       3.186023308114e-02       1.813791457724e+04 
       3.200628266480e-02       1.802270422104e+04 
       3.215298457189e-02       1.790657716473e+04 
       3.230035760410e-02       1.779061100696e+04 
       3.244842124796e-02       1.767549391365e+04 
       3.259719570695e-02       1.756126793999e+04 
       3.274670193554e-02       1.744695255365e+04 
       3.289696167518e-02       1.733401843966e+04 
       3.304799749257e-02       1.722104603790e+04 
       3.319983282015e-02       1.710834151524e+04 
       3.335249199920e-02       1.699612398808e+04 
       3.350600032554e-02       1.688450885429e+04 
       3.366038409821e-02       1.677268042984e+04 
       3.381567067123e-02       1.666266280823e+04 
       3.397188850871e-02       1.655164310561e+04 
       3.412906724358e-02       1.644241633192e+04 
       3.428723774031e-02       1.633308141248e+04 
       3.444643216174e-02       1.622444350823e+04 
       3.460668404057e-02       1.611662201078e+04 
       3.476802835577e-02       1.600847204598e+04 
       3.493050161436e-02       1.590140989143e+04 
       3.509414193901e-02       1.579475638540e+04 
       3.525898916192e-02       1.568743929779e+04 
       3.542508492570e-02       1.558234196222e+04 
       3.559247279156e-02       1.547688390148e+04 
       3.576119835577e-02       1.537221492921e+04 
       3.593130937497e-02       1.526774853656e+04 
       3.610285590122e-02       1.516334582982e+04 
       3.627589042762e-02       1.505987600849e+04 
       3.645046804567e-02       1.495708783734e+04 
       3.662664661521e-02       1.485397856142e+04 
       3.680448694859e-02       1.475261355829e+04 
       3.698405301006e-02       1.465099899711e+04 
       3.716541213223e-02       1.454949057817e+04 
       3.734863525115e-02       1.444906224504e+04 
       3.753379716215e-02       1.434867343930e+04 
       3.772097679843e-02       1.424885580265e+04 
       3.791025753502e-02       1.414884740913e+04 
       3.810172752084e-02       1.405033476262e+04 
       3.829548004199e-02       1.395181360203e+04 
       3.849161391981e-02       1.385368349380e+04 
       3.869023394774e-02       1.375585590602e+04 
       3.889145137166e-02       1.365823746033e+04 
       3.909538441868e-02       1.356108266020e+04 
       3.930215888061e-02       1.346499225480e+04 
       3.951190875862e-02       1.336877803850e+04 
       3.972477697711e-02       1.327332740443e+04 
       3.994091617562e-02       1.317765234853e+04 
       4.016048958911e-02       1.308248456999e+04 
       4.038367202853e-02       1.298791073580e+04 
       4.061065097550e-02       1.289412386861e+04 
       4.084162780711e-02       1.280006934137e+04 
       4.107681916950e-02       1.270669092386e+04 
       4.131645852209e-02       1.261343675927e+04 
       4.156079787798e-02       1.252065179029e+04 
       4.181010977064e-02       1.242799506246e+04 
       4.206468948235e-02       1.233589083355e+04 
       4.232485757636e-02       1.224387005055e+04 
       4.259096278284e-02       1.215200067361e+04 
       4.286338529780e-02       1.206044272852e+04 
       4.314254056659e-02       1.196935599675e+04 
       4.342888363720e-02       1.187894165280e+04 
       4.372291418677e-02       1.178802973872e+04 
       4.402518234632e-02       1.169783295825e+04 
       4.433629547568e-02       1.160785159486e+04 
       4.465692607435e-02       1.151747584610e+04 
       4.498782105628e-02       1.142801529649e+04 
       4.532981266923e-02       1.133831666588e+04 
       4.568383140608e-02       1.124888396568e+04 
       4.605092134000e-02       1.115946073245e+04 
       4.643225842228e-02       1.107010997245e+04 
       4.682917241790e-02       1.098074035037e+04 
       4.724317332742e-02       1.089150297029e+04 
       4.767598336544e-02       1.080209695021e+04 
       4.812957584690e-02       1.071247340155e+04 
       4.860622268958e-02       1.062276262752e+04 
       4.910855268766e-02       1.053258449572e+04 
       4.963962326214e-02       1.044182173256e+04 
       5.020300905081e-02       1.035094854433e+04 
       5.080291144039e-02       1.025873098109e+04 
       5.144429388090e-02       1.016553366753e+04 
       5.213304834208e-02       1.007087272196e+04 
       5.287619809653e-02       9.973830827507e+03 
       5.368214015532e-02       9.873986057958e+03 
       5.456092520304e-02       9.769911436103e+03 
