# dimensionless total [l(l+1)/2pi] C_l's
# for l=2 to 2500, i.e. number of multipoles equal to 2499
#
# -> if you prefer output in CAMB/HealPix/LensPix units/order, set 'format' to 'camb' in input file
# -> if you don't want to see such a header, set 'headers' to 'no' in input file
# -> for CMB lensing (phi), these are C_l^phi-phi for the lensing potential.
#    Remember the conversion factors:
#    C_l^dd (deflection) = l(l+1) C_l^phi-phi
#    C_l^gg (shear/convergence) = 1/4 (l(l+1))^2 C_l^phi-phi
#
# 1:l     2:TT                     3:EE                     4:TE                     5:BB                     6:phiphi                 7:TPhi                   8:Ephi               
    2       2.776064946118e-10       5.783855938223e-15       5.895647208365e-13       0.000000000000e+00       1.091369223667e-08       1.036658407788e-09      -1.955896365401e-12 
    3       2.340793885478e-10       7.276578106029e-15       6.444385581201e-13       0.000000000000e+00       6.648228282569e-09       6.992902912881e-10      -1.366755027533e-12 
    4       2.033169385313e-10       6.174880970099e-15       5.731454516287e-13       0.000000000000e+00       4.561153980013e-09       5.101616641268e-10      -8.226474947592e-13 
    5       1.821848588731e-10       4.022354531332e-15       4.514180303937e-13       0.000000000000e+00       3.359930621229e-09       3.910870075226e-10      -4.231495128172e-13 
    6       1.674216732828e-10       2.166304238466e-15       3.280711750275e-13       0.000000000000e+00       2.592168874889e-09       3.100059982071e-10      -1.546102726927e-13 
    7       1.569193017681e-10       1.097889491440e-15       2.300329880619e-13       0.000000000000e+00       2.067254835149e-09       2.518435933351e-10       9.153827234765e-15 
    8       1.493283837434e-10       6.569818395222e-16       1.640230692402e-13       0.000000000000e+00       1.689859285301e-09       2.085226425946e-10       8.845468780452e-14 
    9       1.438346958581e-10       5.053693715101e-16       1.253341839761e-13       0.000000000000e+00       1.407884255448e-09       1.753050680146e-10       1.033375152870e-13 
   10       1.398782467373e-10       4.260256840042e-16       1.067148834533e-13       0.000000000000e+00       1.190962525262e-09       1.492412273775e-10       7.695205081645e-14 
   11       1.371406973103e-10       3.604908644482e-16       1.016952218915e-13       0.000000000000e+00       1.007660960993e-09       1.287701563586e-10       3.298282371751e-14 
   12       1.352757541779e-10       3.188932680485e-16       1.046234271302e-13       0.000000000000e+00       8.725157772909e-10       1.115968008422e-10      -1.060245287233e-14 
   13       1.340687023187e-10       3.054317775264e-16       1.111425616703e-13       0.000000000000e+00       7.622207493979e-10       9.737498599140e-11      -4.191182668594e-14 
   14       1.334711106273e-10       3.058175625128e-16       1.184453898941e-13       0.000000000000e+00       6.708947808104e-10       8.566928147667e-11      -5.647430277489e-14 
   15       1.333469260685e-10       3.074423159300e-16       1.250717050192e-13       0.000000000000e+00       5.947237213983e-10       7.580401924006e-11      -5.585325226928e-14 
   16       1.335504123735e-10       3.121846347518e-16       1.308688551221e-13       0.000000000000e+00       5.301809754726e-10       6.725510760532e-11      -4.535459645440e-14 
   17       1.340785340478e-10       3.306495040504e-16       1.364491094484e-13       0.000000000000e+00       4.751959909045e-10       6.001050497865e-11      -3.090757643632e-14 
   18       1.348658045872e-10       3.711162082512e-16       1.424844510681e-13       0.000000000000e+00       4.277979884733e-10       5.373242091070e-11      -1.797496926948e-14 
   19       1.359023226103e-10       4.340586680812e-16       1.495339621045e-13       0.000000000000e+00       3.871014291550e-10       4.832899587933e-11      -9.257617077770e-15 
   20       1.371240326236e-10       5.165003828239e-16       1.580423783215e-13       0.000000000000e+00       3.514733981186e-10       4.367873203606e-11      -6.267357175599e-15 
   21       1.385157285872e-10       6.164630820322e-16       1.678040109279e-13       0.000000000000e+00       3.203136976179e-10       3.963705251805e-11      -8.026203301395e-15 
   22       1.400375846187e-10       7.317092067601e-16       1.782647952291e-13       0.000000000000e+00       2.928356421949e-10       3.599437246916e-11      -1.224453769061e-14 
   23       1.416968849282e-10       8.609927852139e-16       1.888823372490e-13       0.000000000000e+00       2.686055494294e-10       3.274525303894e-11      -1.692546578475e-14 
   24       1.434846658149e-10       1.003216872385e-15       1.990490482318e-13       0.000000000000e+00       2.470016231671e-10       2.990338630997e-11      -2.007785774691e-14 
   25       1.453840789718e-10       1.158136171749e-15       2.083211785954e-13       0.000000000000e+00       2.277584994867e-10       2.741136300023e-11      -2.098091699125e-14 
   26       1.473591058114e-10       1.326214000085e-15       2.163483804566e-13       0.000000000000e+00       2.105255836142e-10       2.516716694573e-11      -1.951863829369e-14 
   27       1.494160923873e-10       1.510288920592e-15       2.231706494483e-13       0.000000000000e+00       1.950630349282e-10       2.314343756206e-11      -1.651185600258e-14 
   28       1.515606279913e-10       1.713903875420e-15       2.289837846636e-13       0.000000000000e+00       1.810601612689e-10       2.132136092704e-11      -1.315539993436e-14 
   29       1.537956249440e-10       1.938587049360e-15       2.339372982921e-13       0.000000000000e+00       1.684303957779e-10       1.969230519329e-11      -1.013074973271e-14 
   30       1.561057137125e-10       2.185199550350e-15       2.382114794682e-13       0.000000000000e+00       1.570300540968e-10       1.823383871824e-11      -8.060810735251e-15 
   31       1.584624611486e-10       2.454494507309e-15       2.419815113735e-13       0.000000000000e+00       1.466151387381e-10       1.691012120251e-11      -7.485303081683e-15 
   32       1.608689177601e-10       2.747129052764e-15       2.451732375499e-13       0.000000000000e+00       1.371218303782e-10       1.571121340185e-11      -8.099522961928e-15 
   33       1.633286392000e-10       3.063635689794e-15       2.476132757662e-13       0.000000000000e+00       1.284712095643e-10       1.462588939790e-11      -9.212205987602e-15 
   34       1.658373091957e-10       3.404484825959e-15       2.491022452838e-13       0.000000000000e+00       1.205282974105e-10       1.363572924444e-11      -1.008651991501e-14 
   35       1.683989381137e-10       3.770355730839e-15       2.494612756080e-13       0.000000000000e+00       1.132454144410e-10       1.273426064299e-11      -1.049695445207e-14 
   36       1.710133588107e-10       4.161949454907e-15       2.484980205247e-13       0.000000000000e+00       1.065578292210e-10       1.191309473570e-11      -1.036057289972e-14 
   37       1.736747540156e-10       4.579953452023e-15       2.460406113851e-13       0.000000000000e+00       1.003708315836e-10       1.115995641047e-11      -9.640379570554e-15 
   38       1.763848062754e-10       5.025180349027e-15       2.421026234443e-13       0.000000000000e+00       9.466380756818e-11       1.047160563197e-11      -8.516799605003e-15 
   39       1.791424972580e-10       5.498471284123e-15       2.367739661780e-13       0.000000000000e+00       8.941410101635e-11       9.844365803576e-12      -7.277631326570e-15 
   40       1.819396813746e-10       6.000657464422e-15       2.301795491483e-13       0.000000000000e+00       8.456543965782e-11       9.270189628621e-12      -6.277616793301e-15 
   41       1.847653507514e-10       6.532535548033e-15       2.224387500923e-13       0.000000000000e+00       8.004653566238e-11       8.739179130908e-12      -5.840686031400e-15 
   42       1.876218019076e-10       7.094786611412e-15       2.135226576026e-13       0.000000000000e+00       7.584113825858e-11       8.249023849649e-12      -5.918203085606e-15 
   43       1.905125402170e-10       7.688029081141e-15       2.033540618987e-13       0.000000000000e+00       7.193590644439e-11       7.798010891306e-12      -6.326618834166e-15 
   44       1.934374017309e-10       8.312837455033e-15       1.918454546806e-13       0.000000000000e+00       6.829948295117e-11       7.382230259222e-12      -6.837159890929e-15 
   45       1.963944110285e-10       8.969756537677e-15       1.789089916990e-13       0.000000000000e+00       6.489310391347e-11       6.996817966133e-12      -7.229253221071e-15 
   46       1.993868805952e-10       9.659355475773e-15       1.644916763551e-13       0.000000000000e+00       6.170955746711e-11       6.640533987377e-12      -7.476363976189e-15 
   47       2.024178105687e-10       1.038218536307e-14       1.485494355804e-13       0.000000000000e+00       5.874345608006e-11       6.312260269898e-12      -7.611010980401e-15 
   48       2.054876165768e-10       1.113876211607e-14       1.310372097247e-13       0.000000000000e+00       5.597950894106e-11       6.009616187268e-12      -7.673857550155e-15 
   49       2.085938914065e-10       1.192956479288e-14       1.119088287839e-13       0.000000000000e+00       5.339179438369e-11       5.728867989503e-12      -7.714181684645e-15 
   50       2.117328585829e-10       1.275500760085e-14       9.112110499523e-14       0.000000000000e+00       5.095123097340e-11       5.465918260738e-12      -7.780113180342e-15 
   51       2.149047511753e-10       1.361535086179e-14       6.864770740769e-14       0.000000000000e+00       4.865206949258e-11       5.219800995188e-12      -7.885130009462e-15 
   52       2.181094810388e-10       1.451076297338e-14       4.446883945827e-14       0.000000000000e+00       4.649133424575e-11       4.989978698497e-12      -8.033280515118e-15 
   53       2.213449195667e-10       1.544134175822e-14       1.856742463705e-14       0.000000000000e+00       4.446091924206e-11       4.775306513010e-12      -8.228610552861e-15 
   54       2.246067389795e-10       1.640711154460e-14      -9.070818868229e-15       0.000000000000e+00       4.254724643878e-11       4.573992491482e-12      -8.475152124584e-15 
   55       2.278904407295e-10       1.740808470947e-14      -3.845792012369e-14       0.000000000000e+00       4.073522302434e-11       4.384100318534e-12      -8.773597778438e-15 
   56       2.311983943869e-10       1.844447089887e-14      -6.960560996684e-14       0.000000000000e+00       3.902204741018e-11       4.205294730565e-12      -9.110382399969e-15 
   57       2.345342693695e-10       1.951651466899e-14      -1.025237212872e-13       0.000000000000e+00       3.740623433022e-11       4.037460111899e-12      -9.465869194898e-15 
   58       2.379009291311e-10       2.062443517877e-14      -1.372195654508e-13       0.000000000000e+00       3.588344582257e-11       3.880177849112e-12      -9.817288852109e-15 
   59       2.413003576630e-10       2.176842578206e-14      -1.736978816787e-13       0.000000000000e+00       3.444631696796e-11       3.732707739068e-12      -1.013859905155e-14 
   60       2.447335859951e-10       2.294865361997e-14      -2.119607864258e-13       0.000000000000e+00       3.308428162833e-11       3.593969396958e-12      -1.040034397216e-14 
   61       2.482010700994e-10       2.416517707167e-14      -2.520084713744e-13       0.000000000000e+00       3.178640682706e-11       3.462822993240e-12      -1.057624411791e-14 
   62       2.517040899983e-10       2.541767737738e-14      -2.938415950175e-13       0.000000000000e+00       3.055103356469e-11       3.339027160883e-12      -1.066501210978e-14 
   63       2.552435357056e-10       2.670566577758e-14      -3.374593405066e-13       0.000000000000e+00       2.937800060592e-11       3.222464087435e-12      -1.067320666191e-14 
   64       2.588194255326e-10       2.802855738433e-14      -3.828586880695e-13       0.000000000000e+00       2.826574955323e-11       3.112850244896e-12      -1.060900597419e-14 
   65       2.624308469125e-10       2.938566816722e-14      -4.300343881425e-13       0.000000000000e+00       2.721124604729e-11       3.009727295229e-12      -1.048228078807e-14 
   66       2.660758972239e-10       3.077621193934e-14      -4.789789345013e-13       0.000000000000e+00       2.620990096743e-11       2.912452995880e-12      -1.030466744239e-14 
   67       2.697516246152e-10       3.219929734327e-14      -5.296825373928e-13       0.000000000000e+00       2.525549163207e-11       2.820192105297e-12      -1.008964092914e-14 
   68       2.734551698478e-10       3.365404305335e-14      -5.821330034587e-13       0.000000000000e+00       2.434177719055e-11       2.732118200913e-12      -9.850675880153e-15 
   69       2.771875927709e-10       3.513995722645e-14      -6.363154073104e-13       0.000000000000e+00       2.346790103094e-11       2.648086948511e-12      -9.595133516805e-15 
   70       2.809507184473e-10       3.665662987668e-14      -6.922123048332e-13       0.000000000000e+00       2.263394651295e-11       2.568083544046e-12      -9.329261584788e-15 
   71       2.847459767872e-10       3.820362147110e-14      -7.498037917783e-13       0.000000000000e+00       2.183930479852e-11       2.492020237784e-12      -9.060020547504e-15 
   72       2.885743740888e-10       3.978046293917e-14      -8.090674745109e-13       0.000000000000e+00       2.108263938205e-11       2.419732634003e-12      -8.795107739850e-15 
   73       2.924364645791e-10       4.138665568212e-14      -8.699784407574e-13       0.000000000000e+00       2.036185062044e-11       2.350975990687e-12      -8.542981522005e-15 
   74       2.963323219543e-10       4.302167158235e-14      -9.325092303538e-13       0.000000000000e+00       1.967404026332e-11       2.285421519230e-12      -8.312885433214e-15 
   75       3.002615109204e-10       4.468495301284e-14      -9.966298059927e-13       0.000000000000e+00       1.901547598318e-11       2.222652684130e-12      -8.114872345577e-15 
   76       3.042234981967e-10       4.637585097187e-14      -1.062308891360e-12       0.000000000000e+00       1.838249778254e-11       2.162263473409e-12      -7.957239204789e-15 
   77       3.082190349616e-10       4.809342644205e-14      -1.129518331920e-12       0.000000000000e+00       1.777450644521e-11       2.104182077990e-12      -7.838237805224e-15 
   78       3.122489759687e-10       4.983661265691e-14      -1.198229479889e-12       0.000000000000e+00       1.719145813385e-11       2.048399788340e-12      -7.752889294457e-15 
   79       3.163138433156e-10       5.160427252313e-14      -1.268411896201e-12       0.000000000000e+00       1.663295496383e-11       1.994872676777e-12      -7.695411012079e-15 
   80       3.204138069956e-10       5.339519736106e-14      -1.340033349291e-12       0.000000000000e+00       1.609822884730e-11       1.943519988157e-12      -7.659187545471e-15 
   81       3.245486654505e-10       5.520810564544e-14      -1.413059813890e-12       0.000000000000e+00       1.558612533734e-11       1.894222530567e-12      -7.636741785583e-15 
   82       3.287178261223e-10       5.704164174590e-14      -1.487455469803e-12       0.000000000000e+00       1.509508747201e-11       1.846821066012e-12      -7.619705982703e-15 
   83       3.329202860055e-10       5.889437466764e-14      -1.563182700703e-12       0.000000000000e+00       1.462313961847e-11       1.801114701111e-12      -7.598792802232e-15 
   84       3.371550531242e-10       6.076485798928e-14      -1.640202091749e-12       0.000000000000e+00       1.416835909503e-11       1.756910821808e-12      -7.565867886492e-15 
   85       3.414225338443e-10       6.265182385191e-14      -1.718472424666e-12       0.000000000000e+00       1.373041625916e-11       1.714187934047e-12      -7.520625715454e-15 
   86       3.457233409606e-10       6.455401896979e-14      -1.797950679620e-12       0.000000000000e+00       1.330926129948e-11       1.672956993559e-12      -7.464972540173e-15 
   87       3.500578613611e-10       6.647014606499e-14      -1.878592035099e-12       0.000000000000e+00       1.290465131749e-11       1.633211529979e-12      -7.401029557705e-15 
   88       3.544262439893e-10       6.839886363648e-14      -1.960349866682e-12       0.000000000000e+00       1.251614236965e-11       1.594926903821e-12      -7.331139286309e-15 
   89       3.588283878071e-10       7.033878572930e-14      -2.043175745802e-12       0.000000000000e+00       1.214308150937e-11       1.558059563455e-12      -7.257871940649e-15 
   90       3.632639297571e-10       7.228848170366e-14      -2.127019438518e-12       0.000000000000e+00       1.178459882912e-11       1.522546302086e-12      -7.184031807002e-15 
   91       3.677322327257e-10       7.424647600412e-14      -2.211828904279e-12       0.000000000000e+00       1.143959950244e-11       1.488303514727e-12      -7.112663618453e-15 
   92       3.722323735057e-10       7.621124792866e-14      -2.297550294696e-12       0.000000000000e+00       1.110675582599e-11       1.455226455179e-12      -7.047058930108e-15 
   93       3.767634617323e-10       7.818125237599e-14      -2.384128664327e-12       0.000000000000e+00       1.078481822902e-11       1.423213758654e-12      -6.990008682821e-15 
   94       3.813256777093e-10       8.015498615803e-14      -2.471510228018e-12       0.000000000000e+00       1.047361909358e-11       1.392246842471e-12      -6.941418456001e-15 
   95       3.859193691424e-10       8.213093128038e-14      -2.559640442367e-12       0.000000000000e+00       1.017320589794e-11       1.362321129019e-12      -6.900344666881e-15 
   96       3.905447266802e-10       8.410753490919e-14      -2.648463332383e-12       0.000000000000e+00       9.883532169816e-12       1.333421453260e-12      -6.865712505111e-15 
   97       3.952017764198e-10       8.608320942824e-14      -2.737921500024e-12       0.000000000000e+00       9.604453906821e-12       1.305521666525e-12      -6.836311960521e-15 
   98       3.998903724126e-10       8.805633249606e-14      -2.827956132740e-12       0.000000000000e+00       9.335725996908e-12       1.278584240303e-12      -6.810793850872e-15 
   99       4.046101891704e-10       9.002524710302e-14      -2.918507012013e-12       0.000000000000e+00       9.076998638849e-12       1.252559870041e-12      -6.787665849618e-15 
  100       4.093607141712e-10       9.198826162841e-14      -3.009512521900e-12       0.000000000000e+00       8.827813762694e-12       1.227387078932e-12      -6.765288513658e-15 
  101       4.141412403651e-10       9.394364989756e-14      -3.100909657575e-12       0.000000000000e+00       8.587601450232e-12       1.202991821715e-12      -6.741871311098e-15 
  102       4.189508586801e-10       9.588965123894e-14      -3.192634033867e-12       0.000000000000e+00       8.355676355455e-12       1.179287088467e-12      -6.715468649002e-15 
  103       4.237884505284e-10       9.782447054124e-14      -3.284619893804e-12       0.000000000000e+00       8.131234125018e-12       1.156172508395e-12      -6.683975901153e-15 
  104       4.286529447612e-10       9.974632295629e-14      -3.376800860074e-12       0.000000000000e+00       7.913531756886e-12       1.133558388504e-12      -6.645619554110e-15 
  105       4.335441442089e-10       1.016535747623e-13      -3.469112286615e-12       0.000000000000e+00       7.702464133530e-12       1.111442381210e-12      -6.600511608059e-15 
  106       4.384619973433e-10       1.035446217241e-13      -3.561489242094e-12       0.000000000000e+00       7.498059059240e-12       1.089842482973e-12      -6.549298724965e-15 
  107       4.434063392658e-10       1.054178466879e-13      -3.653865811856e-12       0.000000000000e+00       7.300298737185e-12       1.068773398117e-12      -6.492688300962e-15 
