# dimensionless total [l(l+1)/2pi] C_l's
# for l=2 to 2500, i.e. number of multipoles equal to 2499
#
# -> if you prefer output in CAMB/HealPix/LensPix units/order, set 'format' to 'camb' in input file
# -> if you don't want to see such a header, set 'headers' to 'no' in input file
# -> for CMB lensing (phi), these are C_l^phi-phi for the lensing potential.
#    Remember the conversion factors:
#    C_l^dd (deflection) = l(l+1) C_l^phi-phi
#    C_l^gg (shear/convergence) = 1/4 (l(l+1))^2 C_l^phi-phi
#
# 1:l     2:TT                     3:EE                     4:TE                     5:BB                     6:phiphi                 7:TPhi                   8:Ephi               
    2       2.146762226618e-10       5.193636788033e-15       4.868572008945e-13       0.000000000000e+00       9.927945479762e-09       7.975110692103e-10      -1.991185534177e-12 
    3       1.877818657938e-10       6.588634779545e-15       5.390117173743e-13       0.000000000000e+00       6.113030900993e-09       5.461185205478e-10      -1.438326014491e-12 
    4       1.679568082944e-10       5.621561511660e-15       4.887710380099e-13       0.000000000000e+00       4.222329925113e-09       4.028592288945e-10      -8.925535887016e-13 
    5       1.542593376761e-10       3.684093686680e-15       3.976311783890e-13       0.000000000000e+00       3.127830631807e-09       3.117343346935e-10      -4.678214166261e-13 
    6       1.447789097875e-10       2.004328992447e-15       3.013407480750e-13       0.000000000000e+00       2.424138368560e-09       2.492178132875e-10      -1.735201323301e-13 
    7       1.381990420320e-10       1.035909233838e-15       2.207138119117e-13       0.000000000000e+00       1.941028119495e-09       2.040737642511e-10       6.332102208137e-15 
    8       1.336426064018e-10       6.360907077372e-16       1.632134223901e-13       0.000000000000e+00       1.593438162528e-09       1.703143428951e-10       9.351221245152e-14 
    9       1.305313420446e-10       4.963319704856e-16       1.274522367470e-13       0.000000000000e+00       1.333688795719e-09       1.443694187797e-10       1.120847030934e-13 
   10       1.285205640998e-10       4.177055557728e-16       1.088436187521e-13       0.000000000000e+00       1.133435424079e-09       1.239207704078e-10       8.760427418958e-14 
   11       1.272909531973e-10       3.484866428342e-16       1.025731906774e-13       0.000000000000e+00       9.587215011744e-10       1.075083908760e-10       4.452268903601e-14 
   12       1.266659998142e-10       3.019361012500e-16       1.041080188363e-13       0.000000000000e+00       8.333244276233e-10       9.405558517161e-11       1.034338628662e-15 
   13       1.265341520450e-10       2.854495813952e-16       1.097212942194e-13       0.000000000000e+00       7.306809605244e-10       8.277141914779e-11      -3.092995731861e-14 
   14       1.268275017466e-10       2.869657235893e-16       1.168008203035e-13       0.000000000000e+00       6.456758747258e-10       7.331349022760e-11      -4.676342570886e-14 
   15       1.273959367362e-10       2.936898403625e-16       1.238619808133e-13       0.000000000000e+00       5.744072240090e-10       6.542474136330e-11      -4.764911179606e-14 
   16       1.282025921128e-10       3.054108448890e-16       1.305896759361e-13       0.000000000000e+00       5.140259186658e-10       5.854831966367e-11      -3.856589711953e-14 
   17       1.292719528645e-10       3.304868428767e-16       1.372390720946e-13       0.000000000000e+00       4.623623737374e-10       5.259823640427e-11      -2.539693629723e-14 
   18       1.305138646569e-10       3.760286096609e-16       1.442230141630e-13       0.000000000000e+00       4.176447779877e-10       4.745302050374e-11      -1.337245075205e-14 
   19       1.319221826738e-10       4.424025837349e-16       1.519743176626e-13       0.000000000000e+00       3.791547247950e-10       4.303393722407e-11      -5.179368930915e-15 
   20       1.334589598460e-10       5.269790481306e-16       1.608635510578e-13       0.000000000000e+00       3.454102984404e-10       3.917357803564e-11      -2.461320345188e-15 
   21       1.351170482446e-10       6.283540081873e-16       1.707528569749e-13       0.000000000000e+00       3.158331784500e-10       3.578577420844e-11      -4.371540471852e-15 
   22       1.368641558083e-10       7.450764500635e-16       1.812278791289e-13       0.000000000000e+00       2.896486800470e-10       3.275905536017e-11      -8.764771478071e-15 
   23       1.387123137711e-10       8.765353794389e-16       1.918468425625e-13       0.000000000000e+00       2.664757166875e-10       3.007144849819e-11      -1.368576401115e-14 
   24       1.406597346256e-10       1.022195693216e-15       2.020943257009e-13       0.000000000000e+00       2.457706524457e-10       2.769260450153e-11      -1.714612356317e-14 
   25       1.426942143531e-10       1.181838779189e-15       2.115594534027e-13       0.000000000000e+00       2.272800934294e-10       2.557745974715e-11      -1.838865175244e-14 
   26       1.447845004150e-10       1.355693285206e-15       2.198974601817e-13       0.000000000000e+00       2.106573142955e-10       2.365785875291e-11      -1.725276210731e-14 
   27       1.469344398008e-10       1.546150677163e-15       2.271157452415e-13       0.000000000000e+00       1.956920404562e-10       2.191635045740e-11      -1.456684494116e-14 
   28       1.491464550247e-10       1.756266266194e-15       2.333591302663e-13       0.000000000000e+00       1.821141421773e-10       2.033938339791e-11      -1.153937324569e-14 
   29       1.514249054418e-10       1.987570380066e-15       2.387341476633e-13       0.000000000000e+00       1.698451186148e-10       1.892296894084e-11      -8.799573744770e-15 
   30       1.537592110607e-10       2.241113200594e-15       2.433726391623e-13       0.000000000000e+00       1.587428862957e-10       1.765214850823e-11      -6.885888931942e-15 
   31       1.561271791083e-10       2.517844565566e-15       2.474063660555e-13       0.000000000000e+00       1.485687896420e-10       1.649960278871e-11      -6.273414998265e-15 
   32       1.585344395365e-10       2.818431732875e-15       2.507802775883e-13       0.000000000000e+00       1.392654222814e-10       1.545318242468e-11      -6.747969446968e-15 
   33       1.609869107080e-10       3.143352705087e-15       2.533678167121e-13       0.000000000000e+00       1.307637027023e-10       1.449627493627e-11      -7.783121229595e-15 
   34       1.634831568047e-10       3.493046059655e-15       2.550190016332e-13       0.000000000000e+00       1.229402046162e-10       1.360677079747e-11      -8.794064656273e-15 
   35       1.660281679353e-10       3.868314447076e-15       2.555674496764e-13       0.000000000000e+00       1.157508439099e-10       1.278245734388e-11      -9.502392276699e-15 
   36       1.686225254973e-10       4.270054356154e-15       2.548224415811e-13       0.000000000000e+00       1.091331097238e-10       1.202336409706e-11      -9.690619055567e-15 
   37       1.712607159960e-10       4.699133368037e-15       2.526101506564e-13       0.000000000000e+00       1.029952956472e-10       1.132607887732e-11      -9.188744949390e-15 
   38       1.739412261078e-10       5.156339543029e-15       2.489280979383e-13       0.000000000000e+00       9.731888540105e-11       1.068886804978e-11      -8.165619351450e-15 
   39       1.766583711452e-10       5.642410987910e-15       2.438426933108e-13       0.000000000000e+00       9.208367374049e-11       1.010756238784e-11      -6.937957900721e-15 
   40       1.793986406212e-10       6.158045595621e-15       2.374503082333e-13       0.000000000000e+00       8.723672270596e-11       9.573726483079e-12      -5.898637787700e-15 
   41       1.821471090654e-10       6.703916934467e-15       2.298451738745e-13       0.000000000000e+00       8.271028192617e-11       9.077216113694e-12      -5.411649113288e-15 
   42       1.849109643361e-10       7.280735302995e-15       2.210059718977e-13       0.000000000000e+00       7.848938819418e-11       8.615715039653e-12      -5.444064488893e-15 
   43       1.877023881174e-10       7.889201532850e-15       2.108755005689e-13       0.000000000000e+00       7.456149487466e-11       8.187698202894e-12      -5.822494474774e-15 
   44       1.905318167050e-10       8.529988180717e-15       1.993910349509e-13       0.000000000000e+00       7.089622751748e-11       7.789627349580e-12      -6.330067199646e-15 
   45       1.934066775307e-10       9.203726821206e-15       1.864880635743e-13       0.000000000000e+00       6.745588040800e-11       7.417120201054e-12      -6.756063156608e-15 
   46       1.963277420018e-10       9.910969387963e-15       1.721139011829e-13       0.000000000000e+00       6.423397263103e-11       7.069248473804e-12      -7.068810480820e-15 
   47       1.992912537422e-10       1.065221239299e-14       1.562173728599e-13       0.000000000000e+00       6.122581908675e-11       6.745255049950e-12      -7.289933932782e-15 
   48       2.022895433215e-10       1.142790466799e-14       1.387447689351e-13       0.000000000000e+00       5.841691780168e-11       6.443257800006e-12      -7.446867714986e-15 
   49       2.053107180581e-10       1.223844503583e-14       1.196396320361e-13       0.000000000000e+00       5.578222497531e-11       6.160167470923e-12      -7.573196186732e-15 
   50       2.083430092138e-10       1.308417567765e-14       9.884926037788e-14       0.000000000000e+00       5.329350499972e-11       5.892606798816e-12      -7.702486670915e-15 
   51       2.113899243336e-10       1.396536551398e-14       7.634679272724e-14       0.000000000000e+00       5.094541441605e-11       5.640152462982e-12      -7.847023914123e-15 
   52       2.144586716436e-10       1.488221828759e-14       5.211475005717e-14       0.000000000000e+00       4.873524502696e-11       5.402831188098e-12      -8.013892282581e-15 
   53       2.175557732678e-10       1.583487400248e-14       2.613894391328e-14       0.000000000000e+00       4.665513096708e-11       5.180161266178e-12      -8.211012810595e-15 
   54       2.206869742033e-10       1.682340639282e-14      -1.591420476769e-15       0.000000000000e+00       4.469170374844e-11       4.971117561074e-12      -8.447177660890e-15 
   55       2.238566562461e-10       1.784787177513e-14      -3.108507154971e-14       0.000000000000e+00       4.283005702872e-11       4.774446399493e-12      -8.727958946994e-15 
   56       2.270661178072e-10       1.890847561486e-14      -6.235327579704e-14       0.000000000000e+00       4.106758456264e-11       4.589782020235e-12      -9.042166094204e-15 
   57       2.303147073282e-10       2.000544290512e-14      -9.540619659993e-14       0.000000000000e+00       3.940297567975e-11       4.416746177543e-12      -9.372084556318e-15 
   58       2.336001729784e-10       2.113896989109e-14      -1.302515176428e-13       0.000000000000e+00       3.783203355715e-11       4.254601655714e-12      -9.697183165322e-15 
   59       2.369185523414e-10       2.230922354087e-14      -1.668943955362e-13       0.000000000000e+00       3.634749817620e-11       4.102230905534e-12      -9.993987852572e-15 
   60       2.402640621029e-10       2.351634101632e-14      -2.053374124392e-13       0.000000000000e+00       3.493886927922e-11       3.958114680723e-12      -1.023595536998e-14 
   61       2.436311036966e-10       2.476034749232e-14      -2.455808916888e-13       0.000000000000e+00       3.359525991625e-11       3.820721404522e-12      -1.039950365322e-14 
   62       2.470210558742e-10       2.604088925600e-14      -2.876240346574e-13       0.000000000000e+00       3.231510608090e-11       3.689825729082e-12      -1.048397032584e-14 
   63       2.504368179875e-10       2.735743948714e-14      -3.314639561645e-13       0.000000000000e+00       3.109833225855e-11       3.565449377796e-12      -1.049593039956e-14 
   64       2.538807862492e-10       2.870937156518e-14      -3.770953088388e-13       0.000000000000e+00       2.994343387066e-11       3.447468365261e-12      -1.044350264599e-14 
   65       2.573548105575e-10       3.009595594933e-14      -4.245102472588e-13       0.000000000000e+00       2.884739638980e-11       3.335604665873e-12      -1.033641866345e-14 
   66       2.608601513215e-10       3.151635705871e-14      -4.736983920934e-13       0.000000000000e+00       2.780561445469e-11       3.229417882423e-12      -1.018609194369e-14 
   67       2.643974362863e-10       3.296963015238e-14      -5.246467942427e-13       0.000000000000e+00       2.681181098523e-11       3.128296914694e-12      -1.000568693872e-14 
   68       2.679670142762e-10       3.445483878980e-14      -5.773405386161e-13       0.000000000000e+00       2.585968380317e-11       3.031619459840e-12      -9.808090566606e-15 
   69       2.715701961685e-10       3.597144182352e-14      -6.317647776897e-13       0.000000000000e+00       2.494841373580e-11       2.939286666163e-12      -9.599195051527e-15 
   70       2.752081889680e-10       3.751897957698e-14      -6.879030474749e-13       0.000000000000e+00       2.407813242186e-11       2.851282345133e-12      -9.383371831218e-15 
   71       2.788816887049e-10       3.909696016692e-14      -7.457366451886e-13       0.000000000000e+00       2.324825751157e-11       2.767510758412e-12      -9.165463835021e-15 
   72       2.825908474118e-10       4.070485946743e-14      -8.052446097526e-13       0.000000000000e+00       2.245745596338e-11       2.687792578822e-12      -8.950800904606e-15 
   73       2.863352400998e-10       4.234212107393e-14      -8.664037022933e-13       0.000000000000e+00       2.170360734079e-11       2.611860851320e-12      -8.745215214692e-15 
   74       2.901138317349e-10       4.400815626716e-14      -9.291883866413e-13       0.000000000000e+00       2.098376710905e-11       2.539356953958e-12      -8.555056693772e-15 
   75       2.939249442146e-10       4.570234397721e-14      -9.935708098312e-13       0.000000000000e+00       2.029412993199e-11       2.469826558860e-12      -8.387208444828e-15 
   76       2.977669568085e-10       4.742397276986e-14      -1.059521337354e-12       0.000000000000e+00       1.963096077442e-11       2.402828744547e-12      -8.247313599038e-15 
   77       3.016406279413e-10       4.917205467199e-14      -1.127010314703e-12       0.000000000000e+00       1.899366536445e-11       2.338295232316e-12      -8.134048495011e-15 
   78       3.055471387681e-10       5.094547717325e-14      -1.196006593121e-12       0.000000000000e+00       1.838221556381e-11       2.276229624599e-12      -8.043828350615e-15 
   79       3.094873795781e-10       5.274305698672e-14      -1.266476995347e-12       0.000000000000e+00       1.779621464942e-11       2.216598374153e-12      -7.972482273399e-15 
   80       3.134619318112e-10       5.456353882404e-14      -1.338386307494e-12       0.000000000000e+00       1.723488045582e-11       2.159329065291e-12      -7.915232005296e-15 
   81       3.174710500749e-10       5.640559417057e-14      -1.411697270925e-12       0.000000000000e+00       1.669702851755e-11       2.104308695107e-12      -7.866670667331e-15 
   82       3.215146441605e-10       5.826782006047e-14      -1.486370574128e-12       0.000000000000e+00       1.618105521160e-11       2.051381954714e-12      -7.820741504325e-15 
   83       3.255922610603e-10       6.014873785184e-14      -1.562364844590e-12       0.000000000000e+00       1.568492089976e-11       2.000349510464e-12      -7.770716629601e-15 
   84       3.297033866045e-10       6.204685125502e-14      -1.639637146718e-12       0.000000000000e+00       1.520663949588e-11       1.951018177268e-12      -7.710791082897e-15 
   85       3.338484472184e-10       6.396083415363e-14      -1.718144588243e-12       0.000000000000e+00       1.474587734457e-11       1.903364760277e-12      -7.641215193394e-15 
   86       3.380279420362e-10       6.588937181930e-14      -1.797842966468e-12       0.000000000000e+00       1.430258972751e-11       1.857396349687e-12      -7.563978039197e-15 
   87       3.422421256199e-10       6.783110420124e-14      -1.878686286270e-12       0.000000000000e+00       1.387652978235e-11       1.813100009465e-12      -7.481273589222e-15 
   88       3.464909953486e-10       6.978462569718e-14      -1.960626760485e-12       0.000000000000e+00       1.346724015640e-11       1.770441930711e-12      -7.395506596023e-15 
   89       3.507742788062e-10       7.174848492441e-14      -2.043614810287e-12       0.000000000000e+00       1.307404466042e-11       1.729366585028e-12      -7.309298488622e-15 
   90       3.550914211704e-10       7.372118449066e-14      -2.127599065567e-12       0.000000000000e+00       1.269603992236e-11       1.689795877883e-12      -7.225493265332e-15 
   91       3.594415726009e-10       7.570118076517e-14      -2.212526365314e-12       0.000000000000e+00       1.233208704111e-11       1.651628301976e-12      -7.147163386587e-15 
   92       3.638235756279e-10       7.768688364958e-14      -2.298341757996e-12       0.000000000000e+00       1.198080324022e-11       1.614738090601e-12      -7.077615667764e-15 
   93       3.682363338254e-10       7.967668003906e-14      -2.384989146036e-12       0.000000000000e+00       1.164088704814e-11       1.579004963396e-12      -7.019598282323e-15 
   94       3.726800086523e-10       8.166900873938e-14      -2.472413329292e-12       0.000000000000e+00       1.131216791221e-11       1.544410320055e-12      -6.972772542156e-15 
   95       3.771549801364e-10       8.366229644636e-14      -2.560558271049e-12       0.000000000000e+00       1.099469974981e-11       1.510954016128e-12      -6.935869998768e-15 
   96       3.816614743494e-10       8.565493515453e-14      -2.649366490408e-12       0.000000000000e+00       1.068843777027e-11       1.478624638752e-12      -6.907452447034e-15 
   97       3.861995560295e-10       8.764528225337e-14      -2.738779071504e-12       0.000000000000e+00       1.039323470686e-11       1.447399079948e-12      -6.885906851796e-15 
   98       3.907691212032e-10       8.963166062340e-14      -2.828735672732e-12       0.000000000000e+00       1.010883704879e-11       1.417242109928e-12      -6.869440274465e-15 
   99       3.953698898078e-10       9.161235873239e-14      -2.919174535963e-12       0.000000000000e+00       9.834881273233e-12       1.388105950391e-12      -6.856074799618e-15 
  100       4.000013983139e-10       9.358563073150e-14      -3.010032495772e-12       0.000000000000e+00       9.570890077344e-12       1.359929847830e-12      -6.843642461600e-15 
  101       4.046629923477e-10       9.554969655147e-14      -3.101244988655e-12       0.000000000000e+00       9.316268610255e-12       1.332639646830e-12      -6.829780171116e-15 
  102       4.093538193126e-10       9.750274199872e-14      -3.192746062253e-12       0.000000000000e+00       9.070300705097e-12       1.306147363373e-12      -6.811924641839e-15 
  103       4.140728210126e-10       9.944291885159e-14      -3.284468384572e-12       0.000000000000e+00       8.832145111006e-12       1.280350758136e-12      -6.787307317001e-15 
  104       4.188189750621e-10       1.013683910551e-13      -3.376343999298e-12       0.000000000000e+00       8.601024864700e-12       1.255157346550e-12      -6.753594032084e-15 
  105       4.235920721489e-10       1.032774802049e-13      -3.468306688079e-12       0.000000000000e+00       8.376832654963e-12       1.230561041852e-12      -6.710913339835e-15 
  106       4.283920305032e-10       1.051685399871e-13      -3.560289946025e-12       0.000000000000e+00       8.159600590157e-12       1.206575118103e-12      -6.660093999662e-15 
  107       4.332186518972e-10       1.070399124296e-13      -3.652226281331e-12       0.000000000000e+00       7.949312735413e-12       1.183208541717e-12      -6.602046696447e-15 
