# Matter power spectrum P(k) at redshift z=0
# for k=1.01385e-05 to 1.55851 h/Mpc,
# number of wavenumbers equal to 564
#    1:k (h/Mpc)              2:P (Mpc/h)^3        
       1.013852874376e-05       5.265853009357e+01 
       2.295667331042e-05       1.155770048023e+02 
       3.581876906051e-05       1.772953349977e+02 
       4.875908315101e-05       2.384743014189e+02 
       6.181243804206e-05       2.995769601166e+02 
       7.501451898922e-05       3.608603774555e+02 
       8.840219119715e-05       4.225679215353e+02 
       1.020138308183e-04       4.849221397611e+02 
       1.158896740117e-04       5.481352434950e+02 
       1.300721883111e-04       6.124181692225e+02 
       1.446064705596e-04       6.779840919113e+02 
       1.595406756158e-04       7.450523849394e+02 
       1.749264798753e-04       8.138516520489e+02 
       1.908195833079e-04       8.846224240372e+02 
       2.072802531015e-04       9.576196732680e+02 
       2.243739110015e-04       1.033115226986e+03 
       2.421717648810e-04       1.111400115106e+03 
       2.607514827684e-04       1.194344368143e+03 
       2.801979042415e-04       1.279361226915e+03 
       3.006037794516e-04       1.368214995458e+03 
       3.220705197260e-04       1.461902001922e+03 
       3.447089353051e-04       1.559607344215e+03 
       3.686399249581e-04       1.662683453220e+03 
       3.939950687053e-04       1.771795824351e+03 
       4.209170586550e-04       1.886361759837e+03 
       4.495598844629e-04       2.009011923907e+03 
       4.800886703287e-04       2.137506769448e+03 
       5.126790420322e-04       2.275398656205e+03 
       5.475158889936e-04       2.422896164541e+03 
       5.847913831011e-04       2.578285441538e+03 
       6.247021299826e-04       2.743044116999e+03 
       6.674453671094e-04       2.921148220611e+03 
       7.132141931448e-04       3.109179785945e+03 
       7.621919168965e-04       3.308837552472e+03 
       8.145457472053e-04       3.521057599078e+03 
       8.704201916300e-04       3.745372354221e+03 
       9.299306650122e-04       3.982515918819e+03 
       9.931578943126e-04       4.232614482344e+03 
       1.060143709963e-03       4.495256243843e+03 
       1.130888716227e-03       4.769852947371e+03 
       1.205352138036e-03       5.056095200401e+03 
       1.283453881990e-03       5.353029092721e+03 
       1.365078578349e-03       5.659733130845e+03 
       1.450081146770e-03       5.975761358759e+03 
       1.538293295021e-03       6.299633729594e+03 
       1.629530333205e-03       6.630397794394e+03 
       1.723597754223e-03       6.966969644771e+03 
       1.820297162509e-03       7.308141721424e+03 
       1.919431289291e-03       7.653155548553e+03 
       2.020807981096e-03       8.000997569964e+03 
       2.124243167883e-03       8.350554943780e+03 
       2.229562899590e-03       8.701095086210e+03 
       2.336604586363e-03       9.051854640955e+03 
       2.445217594981e-03       9.402101471750e+03 
       2.555263350880e-03       9.751357513815e+03 
       2.666615079784e-03       1.009890490262e+04 
       2.779157301808e-03       1.044432893224e+04 
       2.892785168496e-03       1.078712590153e+04 
       3.007403712258e-03       1.112709323442e+04 
       3.122927059458e-03       1.146373766234e+04 
       3.239277643478e-03       1.179679814870e+04 
       3.356385442296e-03       1.212610175249e+04 
       3.474187256169e-03       1.245134882332e+04 
       3.592626034388e-03       1.277239460165e+04 
       3.711650255379e-03       1.308908290538e+04 
       3.831213361128e-03       1.340126414486e+04 
       3.951273244755e-03       1.370891004722e+04 
       4.071791788678e-03       1.401184872616e+04 
       4.192734450014e-03       1.431003587646e+04 
       4.314069889484e-03       1.460341264509e+04 
       4.435769639950e-03       1.489193959144e+04 
       4.557807810782e-03       1.517558417267e+04 
       4.680160824440e-03       1.545431709162e+04 
       4.802807181858e-03       1.572814149167e+04 
       4.925727253534e-03       1.599706159279e+04 
       5.048903093466e-03       1.626103593191e+04 
       5.172318273396e-03       1.652010533158e+04 
       5.295957735045e-03       1.677430076987e+04 
       5.419807658303e-03       1.702366338419e+04 
       5.543855343561e-03       1.726816400469e+04 
       5.668089106551e-03       1.750783206802e+04 
       5.792498184290e-03       1.774261668830e+04 
       5.917072650849e-03       1.797255603882e+04 
       6.041803341855e-03       1.819778284594e+04 
       6.166681786715e-03       1.841844395419e+04 
       6.291700147732e-03       1.863466289850e+04 
       6.416851165319e-03       1.883770163190e+04 
       6.542128108656e-03       1.904842056134e+04 
       6.667524731192e-03       1.924939713164e+04 
       6.793035230464e-03       1.944651769468e+04 
       6.918654211769e-03       1.963884255054e+04 
       7.044376655289e-03       1.982718619995e+04 
       7.170197886295e-03       2.002029983267e+04 
       7.296113548110e-03       2.019937924283e+04 
       7.422119577556e-03       2.037715190526e+04 
       7.548212182617e-03       2.054757132451e+04 
       7.674387822114e-03       2.071532196408e+04 
       7.800643187166e-03       2.087799314271e+04 
       7.926975184282e-03       2.103676231451e+04 
       8.053380919912e-03       2.119096257653e+04 
       8.179857686323e-03       2.134716395099e+04 
       8.306402948672e-03       2.149450354323e+04 
       8.433014333151e-03       2.163810598589e+04 
       8.559689616129e-03       2.177797086123e+04 
       8.686426714169e-03       2.191466939203e+04 
       8.813223674864e-03       2.204668317333e+04 
       8.940078668404e-03       2.217499226032e+04 
       9.066989979817e-03       2.229962016393e+04 
       9.193956001810e-03       2.242146147618e+04 
       9.320975228185e-03       2.253879453707e+04 
       9.448046247742e-03       2.265249762418e+04 
       9.575167738669e-03       2.276283937357e+04 
       9.702338463341e-03       2.286983938595e+04 
       9.829557263515e-03       2.297273918951e+04 
       9.956823055891e-03       2.307440845657e+04 
       1.008413482799e-02       2.316876990824e+04 
       1.021149163432e-02       2.326550046407e+04 
       1.033889259289e-02       2.335835511141e+04 
       1.046633688186e-02       2.344303271856e+04 
       1.059382373656e-02       2.352953300967e+04 
       1.072135244660e-02       2.361040690296e+04 
       1.084892235330e-02       2.369025632934e+04 
       1.097653284721e-02       2.376671477719e+04 
       1.110418336585e-02       2.383705947786e+04 
       1.123187339161e-02       2.390839645197e+04 
       1.135960244978e-02       2.397391468006e+04 
       1.148737010673e-02       2.403433774137e+04 
       1.161517596818e-02       2.409709279434e+04 
       1.174301967768e-02       2.415080983983e+04 
       1.187090091508e-02       2.421135686532e+04 
       1.199881939522e-02       2.426379038307e+04 
       1.212677486659e-02       2.430946781474e+04 
       1.225476711022e-02       2.436021771369e+04 
       1.238279593853e-02       2.440454473725e+04 
       1.251086119433e-02       2.444573149015e+04 
       1.263896274987e-02       2.448028608237e+04 
       1.276710050596e-02       2.452285073315e+04 
       1.289527439115e-02       2.455394286854e+04 
       1.302348436099e-02       2.458625648208e+04 
       1.315173039733e-02       2.461645922465e+04 
       1.328001250764e-02       2.463999684723e+04 
       1.340833072448e-02       2.466488877411e+04 
       1.353668510489e-02       2.468814665315e+04 
       1.366507572993e-02       2.470943358763e+04 
       1.379350270422e-02       2.472814165705e+04 
       1.392196615548e-02       2.474257386790e+04 
       1.405046623421e-02       2.475413180842e+04 
       1.417900311328e-02       2.476763919495e+04 
       1.430757698768e-02       2.477677542667e+04 
       1.443618807421e-02       2.478191116383e+04 
       1.456483661123e-02       2.478695018370e+04 
       1.469352285846e-02       2.478905775073e+04 
       1.482224709679e-02       2.479178831334e+04 
       1.495100962810e-02       2.478605515767e+04 
       1.507981077515e-02       2.478333233663e+04 
       1.520865088147e-02       2.477864707437e+04 
       1.533753031126e-02       2.477058704645e+04 
       1.546644944931e-02       2.476472005015e+04 
       1.559540870104e-02       2.475113712672e+04 
       1.572440849237e-02       2.474064629175e+04 
       1.585344926983e-02       2.472557333220e+04 
       1.598253150052e-02       2.470903496815e+04 
       1.611165567216e-02       2.468945443988e+04 
       1.624082229319e-02       2.467170397176e+04 
       1.637003189283e-02       2.464968823203e+04 
       1.649928502116e-02       2.462539647554e+04 
       1.662858224929e-02       2.460011577597e+04 
       1.675792416946e-02       2.457481982601e+04 
       1.688731139520e-02       2.454478317204e+04 
       1.701674456153e-02       2.451791986265e+04 
       1.714622432512e-02       2.448653221389e+04 
       1.727575136452e-02       2.445343830179e+04 
       1.740532638036e-02       2.441855709265e+04 
       1.753495009561e-02       2.438415899831e+04 
       1.766462325584e-02       2.434562290190e+04 
       1.779434662949e-02       2.430898359091e+04 
       1.792412100815e-02       2.426755888945e+04 
       1.805394720688e-02       2.422800895805e+04 
       1.818382606455e-02       2.418249341078e+04 
       1.831375844413e-02       2.414125295126e+04 
       1.844374523311e-02       2.409615990757e+04 
       1.857378734382e-02       2.404778758450e+04 
       1.870388571387e-02       2.400191691023e+04 
       1.883404130653e-02       2.395003738010e+04 
       1.896425511114e-02       2.390174610344e+04 
       1.909452814361e-02       2.385108305509e+04 
       1.922486144682e-02       2.379883851716e+04 
       1.935525609114e-02       2.374341224934e+04 
       1.948571317488e-02       2.369055025657e+04 
       1.961623382489e-02       2.363395746877e+04 
       1.974681919699e-02       2.357787941718e+04 
       1.987747047662e-02       2.351977678592e+04 
       2.000818887933e-02       2.345813158228e+04 
       2.013897565144e-02       2.339943683205e+04 
       2.026983207061e-02       2.333917713435e+04 
       2.040075944650e-02       2.327667560476e+04 
       2.053175912139e-02       2.321480608137e+04 
       2.066283247091e-02       2.315047124601e+04 
       2.079398090469e-02       2.308416252627e+04 
       2.092520586711e-02       2.301889982092e+04 
       2.105650883804e-02       2.295455119580e+04 
       2.118789133359e-02       2.288554698426e+04 
       2.131935490695e-02       2.281834624339e+04 
       2.145090114914e-02       2.274838412981e+04 
       2.158253168992e-02       2.267974832542e+04 
       2.171424819862e-02       2.260824878641e+04 
       2.184605238506e-02       2.253793631687e+04 
       2.197794600048e-02       2.246566909030e+04 
       2.210993083847e-02       2.239193310047e+04 
       2.224200873597e-02       2.231950181602e+04 
       2.237418157431e-02       2.224573838120e+04 
       2.250645128021e-02       2.216958413886e+04 
       2.263881982692e-02       2.209521441173e+04 
       2.277128923529e-02       2.201955941911e+04 
       2.290386157493e-02       2.194247788353e+04 
       2.303653896540e-02       2.186383925801e+04 
       2.316932357746e-02       2.178754472797e+04 
       2.330221763427e-02       2.170756458095e+04 
       2.343522341277e-02       2.162886244064e+04 
       2.356834324496e-02       2.154942095783e+04 
       2.370157951931e-02       2.147055052953e+04 
       2.383493468219e-02       2.138987558801e+04 
       2.396841123935e-02       2.130864376085e+04 
       2.410201175744e-02       2.122693678001e+04 
       2.423573886558e-02       2.114342841154e+04 
       2.436959525698e-02       2.106207286018e+04 
       2.450358369061e-02       2.097839518173e+04 
       2.463770699297e-02       2.089580972208e+04 
       2.477196805982e-02       2.081236052514e+04 
       2.490636985806e-02       2.072875646203e+04 
       2.504091542763e-02       2.064403094751e+04 
       2.517560788347e-02       2.055988124808e+04 
       2.531045041758e-02       2.047349144332e+04 
       2.544544630111e-02       2.038939890141e+04 
       2.558059888652e-02       2.030342655217e+04 
       2.571591160984e-02       2.021684706921e+04 
       2.585138799303e-02       2.013096652574e+04 
       2.598703164632e-02       2.004470764844e+04 
       2.612284627076e-02       1.995705413987e+04 
       2.625883566075e-02       1.986957654538e+04 
       2.639500370674e-02       1.978305820200e+04 
       2.653135439795e-02       1.969568644710e+04 
       2.666789182528e-02       1.960691804296e+04 
       2.680462018423e-02       1.951947366454e+04 
       2.694154377797e-02       1.943148604034e+04 
       2.707866702051e-02       1.934213493819e+04 
       2.721599444001e-02       1.925416773762e+04 
       2.735353068221e-02       1.916537952782e+04 
       2.749128051389e-02       1.907707905679e+04 
       2.762924882662e-02       1.898812744677e+04 
       2.776744064053e-02       1.889867814818e+04 
       2.790586110827e-02       1.880935332123e+04 
       2.804451551910e-02       1.871923153154e+04 
       2.818340930314e-02       1.863005293858e+04 
       2.832254803581e-02       1.854059179816e+04 
       2.846193744243e-02       1.845073111374e+04 
       2.860158340294e-02       1.836063916237e+04 
       2.874149195691e-02       1.827142286217e+04 
       2.888166930869e-02       1.818125106957e+04 
       2.902212183275e-02       1.809192063280e+04 
       2.916285607926e-02       1.800130767694e+04 
       2.930387877994e-02       1.791169385071e+04 
       2.944519685405e-02       1.782185694413e+04 
       2.958681741471e-02       1.773150056171e+04 
       2.972874777546e-02       1.764221559030e+04 
       2.987099545708e-02       1.755191892728e+04 
       3.001356819473e-02       1.746209954652e+04 
       3.015647394536e-02       1.737136435501e+04 
       3.029972089545e-02       1.728180168368e+04 
       3.044331746915e-02       1.719238460904e+04 
       3.058727233663e-02       1.710216137447e+04 
       3.073159442296e-02       1.701236897148e+04 
       3.087629291731e-02       1.692191717766e+04 
       3.102137728253e-02       1.683227850771e+04 
       3.116685726527e-02       1.674337706300e+04 
       3.131274290645e-02       1.665287630097e+04 
       3.145904455227e-02       1.656408332786e+04 
       3.160577286579e-02       1.647389330043e+04 
       3.175293883893e-02       1.638512556909e+04 
       3.190055380514e-02       1.629576234419e+04 
       3.204862945265e-02       1.620598984702e+04 
       3.219717783838e-02       1.611757233818e+04 
       3.234621140246e-02       1.602848676096e+04 
       3.249574298359e-02       1.593913872707e+04 
       3.264578583506e-02       1.585037431291e+04 
       3.279635364166e-02       1.576193332971e+04 
       3.294746053737e-02       1.567284295175e+04 
       3.309912112402e-02       1.558471304094e+04 
       3.325135049094e-02       1.549637162631e+04 
       3.340416423559e-02       1.540805027577e+04 
       3.355757848528e-02       1.532003506200e+04 
       3.371160992015e-02       1.523206259266e+04 
       3.386627579729e-02       1.514378201494e+04 
       3.402159397623e-02       1.505625585139e+04 
       3.417758294587e-02       1.496886544637e+04 
       3.433426185288e-02       1.488141683571e+04 
       3.449165053172e-02       1.479409361555e+04 
       3.464976953640e-02       1.470640685023e+04 
       3.480864017405e-02       1.461962309081e+04 
       3.496828454054e-02       1.453301179316e+04 
       3.512872555808e-02       1.444563130329e+04 
       3.528998701521e-02       1.435937261125e+04 
       3.545209360916e-02       1.427310593103e+04 
       3.561507099081e-02       1.418632900163e+04 
       3.577894581245e-02       1.410001985957e+04 
       3.594374577861e-02       1.401456503267e+04 
       3.610949970004e-02       1.392845076872e+04 
       3.627623755124e-02       1.384274331185e+04 
       3.644399053175e-02       1.375713688678e+04 
       3.661279113146e-02       1.367144356341e+04 
       3.678267320038e-02       1.358642661122e+04 
       3.695367202303e-02       1.350080338779e+04 
       3.712582439812e-02       1.341618298439e+04 
       3.729916872366e-02       1.333089943831e+04 
       3.747374508816e-02       1.324620537838e+04 
       3.764959536834e-02       1.316160424273e+04 
       3.782676333399e-02       1.307709525761e+04 
       3.800529476057e-02       1.299272018400e+04 
       3.818523755014e-02       1.290849544220e+04 
       3.836664186163e-02       1.282425016713e+04 
       3.854956025106e-02       1.274020868807e+04 
       3.873404782268e-02       1.265584206229e+04 
       3.892016239225e-02       1.257216298374e+04 
       3.910796466333e-02       1.248847567741e+04 
       3.929751841812e-02       1.240451466201e+04 
       3.948889072411e-02       1.232102604740e+04 
       3.968215215822e-02       1.223722458599e+04 
       3.987737705013e-02       1.215396251374e+04 
       4.007464374695e-02       1.207035690188e+04 
       4.027403490128e-02       1.198709197160e+04 
       4.047563778531e-02       1.190361460984e+04 
       4.067954463378e-02       1.182034298926e+04 
       4.088585301891e-02       1.173719774355e+04 
       4.109466626107e-02       1.165379019670e+04 
       4.130609387913e-02       1.157028970060e+04 
       4.152025208524e-02       1.148707910811e+04 
       4.173726432931e-02       1.140378010199e+04 
       4.195726189915e-02       1.132057049540e+04 
       4.218038458334e-02       1.123695725592e+04 
       4.240678140444e-02       1.115343380118e+04 
       4.263661143190e-02       1.106995239683e+04 
       4.287004468487e-02       1.098605971076e+04 
       4.310726313707e-02       1.090252153827e+04 
       4.334846183759e-02       1.081849092762e+04 
       4.359385016378e-02       1.073442830245e+04 
       4.384365322505e-02       1.064989298751e+04 
       4.409811343950e-02       1.056558730081e+04 
       4.435749230910e-02       1.048093299921e+04 
       4.462207242347e-02       1.039590846928e+04 
       4.489215972797e-02       1.031061996577e+04 
       4.516808609799e-02       1.022504845608e+04 
       4.545021226929e-02       1.013905399956e+04 
       4.573893118380e-02       1.005265585167e+04 
       4.603467182170e-02       9.965840107668e+03 
       4.633790360497e-02       9.878460593300e+03 
       4.664914147476e-02       9.790682985507e+03 
       4.696895176653e-02       9.702282557325e+03 
       4.729795903349e-02       9.613211449320e+03 
       4.763685400161e-02       9.523402772845e+03 
       4.798640288109e-02       9.432849421950e+03 
       4.834745831053e-02       9.341436371960e+03 
       4.872097227523e-02       9.249126671086e+03 
       4.910801142325e-02       9.155612759774e+03 
       4.950977530693e-02       9.061116759369e+03 
       4.992761821015e-02       8.965245067173e+03 
       5.036307539015e-02       8.868136632236e+03 
       5.081789477796e-02       8.769265635070e+03 
       5.129407545527e-02       8.668809077137e+03 
       5.179391457332e-02       8.566364204964e+03 
       5.232006481734e-02       8.461738603421e+03 
       5.287560506379e-02       8.354607560918e+03 
       5.346412753662e-02       8.244670836648e+03 
       5.408984553120e-02       8.131539945504e+03 
       5.475772658247e-02       8.014713486742e+03 
       5.547365664327e-02       7.893741306339e+03 
       5.624464103503e-02       7.767932183651e+03 
       5.707904683637e-02       7.636365736369e+03 
       5.798688739033e-02       7.497956515742e+03 
       5.898013970419e-02       7.351503196761e+03 
       6.007306428861e-02       7.195328800122e+03 
       6.128245575129e-02       7.027419274724e+03 
