# Matter power spectrum P(k) at redshift z=0
# for k=9.2404e-06 to 1.50291 h/Mpc,
# number of wavenumbers equal to 558
#    1:k (h/Mpc)              2:P (Mpc/h)^3        
       9.240404206280e-06       6.912737660449e+01 
       2.147192306714e-05       1.555610642629e+02 
       3.374059185708e-05       2.402943184896e+02 
       4.607616468244e-05       3.243139263249e+02 
       5.850882670117e-05       4.081541406303e+02 
       7.106943690785e-05       4.921981270469e+02 
       8.378977779118e-05       5.767535534586e+02 
       9.670281488634e-05       6.620666027659e+02 
       1.098429692690e-04       7.482655979920e+02 
       1.232464060657e-04       8.351552538907e+02 
       1.369513420732e-04       9.253172092928e+02 
       1.509983755666e-04       1.019174267593e+03 
       1.654308413030e-04       1.104517693523e+03 
       1.802951935597e-04       1.205095425928e+03 
       1.956414197293e-04       1.306164283293e+03 
       2.115234864632e-04       1.398528522078e+03 
       2.279998195243e-04       1.506201502397e+03 
       2.451338172626e-04       1.610393950027e+03 
       2.629943958267e-04       1.722827541675e+03 
       2.816565616913e-04       1.836396231491e+03 
       3.012020036133e-04       1.961381981731e+03 
       3.217196914885e-04       2.090911463397e+03 
       3.433064635202e-04       2.218972914284e+03 
       3.660675754029e-04       2.366686493721e+03 
       3.901171757003e-04       2.516230316349e+03 
       4.155786602640e-04       2.670526697572e+03 
       4.425848456562e-04       2.826437571590e+03 
       4.712778878479e-04       3.000206778739e+03 
       5.018088593273e-04       3.185014408151e+03 
       5.343368874265e-04       3.376404399477e+03 
       5.690277524002e-04       3.581434155468e+03 
       6.060518498184e-04       3.798911547782e+03 
       6.455814429989e-04       4.029723564321e+03 
       6.877871721106e-04       4.276172797707e+03 
       7.328338500362e-04       4.538106913353e+03 
       7.808756601683e-04       4.810987164209e+03 
       8.320509712627e-04       5.102185907164e+03 
       8.864770854464e-04       5.407842116488e+03 
       9.442453173496e-04       5.729840781672e+03 
       1.005416842214e-03       6.067824229150e+03 
       1.070019729521e-03       6.420545228862e+03 
       1.138047488060e-03       6.788619471356e+03 
       1.209459296793e-03       7.169642866237e+03 
       1.284181908716e-03       7.563075300440e+03 
       1.362113028325e-03       7.969106043866e+03 
       1.443125813761e-03       8.385032779260e+03 
       1.527074068201e-03       8.810481619080e+03 
       1.613797670200e-03       9.240915088882e+03 
       1.703127840895e-03       9.678821898508e+03 
       1.794891936653e-03       1.012173868987e+04 
       1.888917564468e-03       1.056804219170e+04 
       1.985035922676e-03       1.101707042655e+04 
       2.083084357068e-03       1.146617268241e+04 
       2.182908185449e-03       1.191626916925e+04 
       2.284361882166e-03       1.236479465037e+04 
       2.387309731528e-03       1.281083263350e+04 
       2.491626061076e-03       1.325446432148e+04 
       2.597195157604e-03       1.369513197977e+04 
       2.703910955388e-03       1.413162750143e+04 
       2.811676570586e-03       1.456365657530e+04 
       2.920403740494e-03       1.499047430117e+04 
       3.030012212487e-03       1.541183132955e+04 
       3.140429115719e-03       1.582754826682e+04 
       3.251588339015e-03       1.623718753547e+04 
       3.363429930829e-03       1.664054150125e+04 
       3.475899531382e-03       1.703718749304e+04 
       3.588947842778e-03       1.742749748430e+04 
       3.702530139820e-03       1.781038738641e+04 
       3.816605822081e-03       1.818653330792e+04 
       3.931138006297e-03       1.855577342354e+04 
       4.046093157249e-03       1.891776354084e+04 
       4.161440754713e-03       1.927258241557e+04 
       4.277152993774e-03       1.962013469089e+04 
       4.393204515716e-03       1.996048157282e+04 
       4.509572166707e-03       2.029354005808e+04 
       4.626234781612e-03       2.061946252758e+04 
       4.743172990435e-03       2.093835113407e+04 
       4.860369045048e-03       2.129599179085e+04 
       4.977806664086e-03       2.161623374838e+04 
       5.095470894071e-03       2.185431666942e+04 
       5.213347984999e-03       2.216654743535e+04 
       5.331425278843e-03       2.247570252033e+04 
       5.449691109536e-03       2.274526401443e+04 
       5.568134713203e-03       2.301217957160e+04 
       5.686746147507e-03       2.324795565681e+04 
       5.805516219120e-03       2.350713925026e+04 
       5.924436418443e-03       2.375737553832e+04 
       6.043498860777e-03       2.401204708685e+04 
       6.162696233260e-03       2.428871443484e+04 
       6.282021746954e-03       2.450533857275e+04 
       6.401469093530e-03       2.467441299098e+04 
       6.521032406071e-03       2.491767842975e+04 
       6.640706223554e-03       2.514477544644e+04 
       6.760485458644e-03       2.531572601126e+04 
       6.880365368446e-03       2.555478682712e+04 
       7.000341527917e-03       2.574080713246e+04 
       7.120409805678e-03       2.591963966644e+04 
       7.240566341971e-03       2.612478143955e+04 
       7.360807528564e-03       2.625438060490e+04 
       7.481129990403e-03       2.644759978778e+04 
       7.601530568846e-03       2.659350186493e+04 
       7.722006306322e-03       2.675237827695e+04 
       7.842554432292e-03       2.690375492386e+04 
       7.963172350371e-03       2.709420361698e+04 
       8.083857626518e-03       2.722977371995e+04 
       8.204607978193e-03       2.737013481232e+04 
       8.325421264386e-03       2.747278019637e+04 
       8.446295476442e-03       2.761054786123e+04 
       8.567228729622e-03       2.770587251931e+04 
       8.688219255316e-03       2.783992596400e+04 
       8.809265393866e-03       2.796663546595e+04 
       8.930365587941e-03       2.805603701957e+04 
       9.051518376414e-03       2.815344332566e+04 
       9.172722388707e-03       2.825398358305e+04 
       9.293976339554e-03       2.835974044910e+04 
       9.415279024157e-03       2.843743961361e+04 
       9.536629313697e-03       2.855981439918e+04 
       9.658026151172e-03       2.862195432847e+04 
       9.779468547539e-03       2.867967351590e+04 
       9.900955578132e-03       2.875639988929e+04 
       1.002248637934e-02       2.881837541014e+04 
       1.014406014551e-02       2.889120906144e+04 
       1.026567612610e-02       2.898755287871e+04 
       1.038733362296e-02       2.903501831182e+04 
       1.050903198792e-02       2.905969445097e+04 
       1.063077062042e-02       2.913193946276e+04 
       1.075254896539e-02       2.914895382128e+04 
       1.087436651124e-02       2.919835350141e+04 
       1.099622278801e-02       2.923361944086e+04 
       1.111811736560e-02       2.927539435575e+04 
       1.124004985222e-02       2.929992361274e+04 
       1.136201989281e-02       2.932142853024e+04 
       1.148402716770e-02       2.936448442250e+04 
       1.160607139126e-02       2.937988604667e+04 
       1.172815231071e-02       2.940159732032e+04 
       1.185026970501e-02       2.939530156736e+04 
       1.197242338375e-02       2.941623094905e+04 
       1.209461318624e-02       2.940608080875e+04 
       1.221683898055e-02       2.943122259972e+04 
       1.233910066270e-02       2.941268245124e+04 
       1.246139815587e-02       2.941087860388e+04 
       1.258373140964e-02       2.940554322361e+04 
       1.270610039939e-02       2.940806446927e+04 
       1.282850512562e-02       2.938347895725e+04 
       1.295094561340e-02       2.937150749000e+04 
       1.307342191186e-02       2.935058341713e+04 
       1.319593409367e-02       2.933491219129e+04 
       1.331848225463e-02       2.931989285172e+04 
       1.344106651325e-02       2.931420890282e+04 
       1.356368701039e-02       2.925682850607e+04 
       1.368634390892e-02       2.923387611942e+04 
       1.380903739342e-02       2.920145699189e+04 
       1.393176766993e-02       2.917727029947e+04 
       1.405453496568e-02       2.914383034592e+04 
       1.417733952892e-02       2.908599862955e+04 
       1.430018162871e-02       2.903824986358e+04 
       1.442306155476e-02       2.901931640186e+04 
       1.454597961733e-02       2.895764379108e+04 
       1.466893614709e-02       2.889724907151e+04 
       1.479193149508e-02       2.886147589730e+04 
       1.491496603262e-02       2.879450652233e+04 
       1.503804015125e-02       2.873716658541e+04 
       1.516115426279e-02       2.869732566261e+04 
       1.528430879926e-02       2.863570561050e+04 
       1.540750421297e-02       2.855660775931e+04 
       1.553074097653e-02       2.849327633897e+04 
       1.565401958291e-02       2.843223082888e+04 
       1.577734054555e-02       2.836347633146e+04 
       1.590070439843e-02       2.828846979522e+04 
       1.602411169622e-02       2.823804807033e+04 
       1.614756301438e-02       2.814778944331e+04 
       1.627105894933e-02       2.808020831065e+04 
       1.639460011864e-02       2.799310499460e+04 
       1.651818716118e-02       2.792192321709e+04 
       1.664182073735e-02       2.784384186767e+04 
       1.676550152929e-02       2.775592964897e+04 
       1.688923024112e-02       2.767199582891e+04 
       1.701300759918e-02       2.760058429156e+04 
       1.713683435233e-02       2.750311235104e+04 
       1.726071127221e-02       2.741705170377e+04 
       1.738463915354e-02       2.732553140713e+04 
       1.750861881446e-02       2.723805618875e+04 
       1.763265109684e-02       2.714825518179e+04 
       1.775673686667e-02       2.706410238024e+04 
       1.788087701436e-02       2.696352448668e+04 
       1.800507245521e-02       2.687451036585e+04 
       1.812932412973e-02       2.676557233313e+04 
       1.825363300413e-02       2.668334683658e+04 
       1.837800007070e-02       2.657919744826e+04 
       1.850242634828e-02       2.648421836506e+04 
       1.862691288276e-02       2.637150296094e+04 
       1.875146074754e-02       2.626565915664e+04 
       1.887607104403e-02       2.616873725075e+04 
       1.900074490219e-02       2.606196465205e+04 
       1.912548348108e-02       2.595419947781e+04 
       1.925028796943e-02       2.585487260712e+04 
       1.937515958618e-02       2.575341815309e+04 
       1.950009958114e-02       2.564032264968e+04 
       1.962510923559e-02       2.552345074994e+04 
       1.975018986290e-02       2.542089641546e+04 
       1.987534280925e-02       2.531063170610e+04 
       2.000056945428e-02       2.519774381139e+04 
       2.012587121181e-02       2.508109653483e+04 
       2.025124953058e-02       2.497534470445e+04 
       2.037670589499e-02       2.486057891449e+04 
       2.050224182593e-02       2.474293756527e+04 
       2.062785888152e-02       2.463645730727e+04 
       2.075355865801e-02       2.451219857768e+04 
       2.087934279058e-02       2.440368293497e+04 
       2.100521295428e-02       2.427836884421e+04 
       2.113117086490e-02       2.416169563764e+04 
       2.125721827996e-02       2.405052305232e+04 
       2.138335699965e-02       2.392700437215e+04 
       2.150958886782e-02       2.380896331659e+04 
       2.163591577306e-02       2.368795817085e+04 
       2.176233964977e-02       2.357020066135e+04 
       2.188886247921e-02       2.345158225636e+04 
       2.201548629067e-02       2.332995674327e+04 
       2.214221316265e-02       2.320805614651e+04 
       2.226904522408e-02       2.309449102930e+04 
       2.239598465552e-02       2.297292127947e+04 
       2.252303369049e-02       2.284712392252e+04 
       2.265019461681e-02       2.272644767152e+04 
       2.277746977792e-02       2.260055608982e+04 
       2.290486157436e-02       2.247753273202e+04 
       2.303237246516e-02       2.235468506643e+04 
       2.316000496943e-02       2.223180662414e+04 
       2.328776166785e-02       2.210760450395e+04 
       2.341564520432e-02       2.198817142023e+04 
       2.354365828760e-02       2.186739795905e+04 
       2.367180369302e-02       2.174031620725e+04 
       2.380008426429e-02       2.161253296158e+04 
       2.392850291529e-02       2.148915620900e+04 
       2.405706263199e-02       2.137212444729e+04 
       2.418576647438e-02       2.124679229828e+04 
       2.431461757851e-02       2.111959041774e+04 
       2.444361915859e-02       2.099310490655e+04 
       2.457277450911e-02       2.086803132401e+04 
       2.470208700713e-02       2.074347236765e+04 
       2.483156011453e-02       2.062470629906e+04 
       2.496119738048e-02       2.049654610813e+04 
       2.509100244383e-02       2.037613220126e+04 
       2.522097903573e-02       2.024666789870e+04 
       2.535113098227e-02       2.012304409145e+04 
       2.548146220722e-02       1.999899431271e+04 
       2.561197673486e-02       1.987576843166e+04 
       2.574267869297e-02       1.975411420837e+04 
       2.587357231584e-02       1.963101067592e+04 
       2.600466194746e-02       1.950461221774e+04 
       2.613595204478e-02       1.938462735038e+04 
       2.626744718116e-02       1.926260317851e+04 
       2.639915204983e-02       1.913655759285e+04 
       2.653107146761e-02       1.901173533365e+04 
       2.666321037867e-02       1.889428756282e+04 
       2.679557385850e-02       1.876720408306e+04 
       2.692816711801e-02       1.864446600605e+04 
       2.706099550775e-02       1.852174029185e+04 
       2.719406452235e-02       1.840255510448e+04 
       2.732737980513e-02       1.828020301259e+04 
       2.746094715282e-02       1.815919730401e+04 
       2.759477252061e-02       1.803935120435e+04 
       2.772886202721e-02       1.791726924609e+04 
       2.786322196029e-02       1.779675370735e+04 
       2.799785878208e-02       1.767533014164e+04 
       2.813277913511e-02       1.755477951166e+04 
       2.826798984837e-02       1.743568368120e+04 
       2.840349794355e-02       1.731691691147e+04 
       2.853931064168e-02       1.719993666709e+04 
       2.867543536992e-02       1.708110196573e+04 
       2.881187976879e-02       1.696101545061e+04 
       2.894865169958e-02       1.684198853380e+04 
       2.908575925216e-02       1.672574279245e+04 
       2.922321075310e-02       1.661115382266e+04 
       2.936101477419e-02       1.649008873455e+04 
       2.949918014128e-02       1.637529579404e+04 
       2.963771594356e-02       1.625799995916e+04 
       2.977663154328e-02       1.614219480719e+04 
       2.991593658585e-02       1.602742810581e+04 
       3.005564101051e-02       1.591183714168e+04 
       3.019575506136e-02       1.579755384233e+04 
       3.033628929909e-02       1.568322678956e+04 
       3.047725461308e-02       1.557248583240e+04 
       3.061866223426e-02       1.545599591662e+04 
       3.076052374845e-02       1.534470024260e+04 
       3.090285111044e-02       1.523154478998e+04 
       3.104565665875e-02       1.511932242427e+04 
       3.118895313114e-02       1.501017759368e+04 
       3.133275368086e-02       1.489713677862e+04 
       3.147707189380e-02       1.478549675430e+04 
       3.162192180644e-02       1.467586901539e+04 
       3.176731792484e-02       1.456549648344e+04 
       3.191327524456e-02       1.445607740474e+04 
       3.205980927164e-02       1.434722961098e+04 
       3.220693604474e-02       1.424016790885e+04 
       3.235467215849e-02       1.413222062603e+04 
       3.250303478811e-02       1.402409433321e+04 
       3.265204171538e-02       1.391812378941e+04 
       3.280171135610e-02       1.381026224672e+04 
       3.295206278911e-02       1.370238622319e+04 
       3.310311578697e-02       1.359652342667e+04 
       3.325489084841e-02       1.349092775674e+04 
       3.340740923275e-02       1.338808688707e+04 
       3.356069299628e-02       1.328288891194e+04 
       3.371476503089e-02       1.317885361340e+04 
       3.386964910507e-02       1.307415335783e+04 
       3.402536990737e-02       1.297225354549e+04 
       3.418195309264e-02       1.286873183133e+04 
       3.433942533117e-02       1.276752671217e+04 
       3.449781436094e-02       1.266669839356e+04 
       3.465714904332e-02       1.256482911861e+04 
       3.481745942238e-02       1.246358183512e+04 
       3.497877678813e-02       1.236298109512e+04 
       3.514113374410e-02       1.226287417394e+04 
       3.530456427938e-02       1.216339068310e+04 
       3.546910384580e-02       1.206432894384e+04 
       3.563478944042e-02       1.196612341446e+04 
       3.580165969390e-02       1.186834588387e+04 
       3.596975496524e-02       1.177127163403e+04 
       3.613911744342e-02       1.167293389098e+04 
       3.630979125658e-02       1.157598356135e+04 
       3.648182258939e-02       1.147980276518e+04 
       3.665525980939e-02       1.138342597172e+04 
       3.683015360302e-02       1.128874854514e+04 
       3.700655712244e-02       1.119348764984e+04 
       3.718452614396e-02       1.109764427848e+04 
       3.736411923932e-02       1.100339820762e+04 
       3.754539796100e-02       1.090982668891e+04 
       3.772842704308e-02       1.081566127769e+04 
       3.791327461906e-02       1.072270806763e+04 
       3.810001245846e-02       1.063101648163e+04 
       3.828871622419e-02       1.053813801673e+04 
       3.847946575278e-02       1.044615108207e+04 
       3.867234536007e-02       1.035375030940e+04 
       3.886744417501e-02       1.026322329832e+04 
       3.906485650481e-02       1.017159074693e+04 
       3.926468223492e-02       1.008043489277e+04 
       3.946702726790e-02       9.990542696085e+03 
       3.967200400575e-02       9.900864237343e+03 
       3.987973188081e-02       9.810706175169e+03 
       4.009033794136e-02       9.721019331356e+03 
       4.030395749839e-02       9.631840663842e+03 
       4.052073484164e-02       9.543882125589e+03 
       4.074082403355e-02       9.454744579109e+03 
       4.096438979159e-02       9.365912939264e+03 
       4.119160847070e-02       9.278489565861e+03 
       4.142266915960e-02       9.190876457292e+03 
       4.165777490706e-02       9.102607431239e+03 
       4.189714409638e-02       9.014941424567e+03 
       4.214101199015e-02       8.927296691073e+03 
       4.238963247034e-02       8.840814119370e+03 
       4.264328000379e-02       8.754189809199e+03 
       4.290225186822e-02       8.666544346360e+03 
       4.316687068039e-02       8.579747034445e+03 
       4.343748727590e-02       8.493608527792e+03 
       4.371448399943e-02       8.406225106975e+03 
       4.399827847602e-02       8.319877764388e+03 
       4.428932794790e-02       8.233158932316e+03 
       4.458813427888e-02       8.146676265282e+03 
       4.489524974971e-02       8.060519944326e+03 
       4.521128379449e-02       7.973245488575e+03 
       4.553691086111e-02       7.886280261015e+03 
       4.587287962045e-02       7.799514533541e+03 
       4.622002380037e-02       7.712071046286e+03 
       4.657927498656e-02       7.624657422376e+03 
       4.695167781443e-02       7.537458300503e+03 
       4.733840808145e-02       7.448880181320e+03 
       4.774079444256e-02       7.360687547831e+03 
       4.816034452124e-02       7.271226525386e+03 
       4.859877648553e-02       7.181577119826e+03 
       4.905805741400e-02       7.091095965134e+03 
       4.954045012642e-02       7.000581487348e+03 
       5.004857059301e-02       6.908206824905e+03 
       5.058545857931e-02       6.814928271880e+03 
       5.115466483649e-02       6.720316755511e+03 
       5.176035889158e-02       6.624799334287e+03 
       5.240746225597e-02       6.527165785825e+03 
       5.310181246533e-02       6.426995041261e+03 
       5.385036336122e-02       6.324827987760e+03 
       5.466142553253e-02       6.219455342512e+03 
       5.554494608604e-02       6.110508360909e+03 
       5.651281559802e-02       5.996964599084e+03 
