# Matter power spectrum P(k) at redshift z=0
# for k=9.93897e-06 to 1.83885 h/Mpc,
# number of wavenumbers equal to 563
#    1:k (h/Mpc)              2:P (Mpc/h)^3        
       9.938971478466e-06       5.676828252340e+01 
       2.264340682445e-05       1.253376040849e+02 
       3.539035076717e-05       1.925905792487e+02 
       4.821316169856e-05       2.592981229318e+02 
       6.114572667465e-05       3.258873546839e+02 
       7.422275538178e-05       3.926729776532e+02 
       8.748008315144e-05       4.599209347006e+02 
       1.009549869565e-04       5.268764909258e+02 
       1.146865183523e-04       5.956356391463e+02 
       1.287158573575e-04       6.657451843359e+02 
       1.430866912837e-04       7.370942870200e+02 
       1.578456224775e-04       8.100857949941e+02 
       1.730426088010e-04       8.849716006654e+02 
       1.887314403778e-04       9.620175327158e+02 
       2.049702555899e-04       1.041534413689e+03 
       2.218220984268e-04       1.123883071242e+03 
       2.393555179063e-04       1.209331344471e+03 
       2.576452082350e-04       1.295290733930e+03 
       2.767726854232e-04       1.387357585538e+03 
       2.968269919308e-04       1.482884521667e+03 
       3.179054152849e-04       1.583892824955e+03 
       3.401141991118e-04       1.690611177441e+03 
       3.635692153317e-04       1.802284599386e+03 
       3.883965541007e-04       1.918581749056e+03 
       4.147329733911e-04       2.042804351389e+03 
       4.427261331701e-04       2.173783940528e+03 
       4.725345209032e-04       2.310919357355e+03 
       5.043269574251e-04       2.459432497112e+03 
       5.382815581919e-04       2.617360358557e+03 
       5.745840191644e-04       2.781298022595e+03 
       6.134251051163e-04       2.958391713605e+03 
       6.549972479825e-04       3.146184206904e+03 
       6.994902204030e-04       3.346809013100e+03 
       7.470859385119e-04       3.560195591951e+03 
       7.979525659079e-04       3.785765998901e+03 
       8.522382262415e-04       4.025408574914e+03 
       9.100647630633e-04       4.278399485678e+03 
       9.715220821036e-04       4.544646881524e+03 
       1.036663640737e-03       4.824625883098e+03 
       1.105503588520e-03       5.117708645789e+03 
       1.178015907499e-03       5.423415173746e+03 
       1.254135673307e-03       5.740932177164e+03 
       1.333762302164e-03       6.069227237302e+03 
       1.416764418838e-03       6.407521099801e+03 
       1.502985822635e-03       6.754836783580e+03 
       1.592251967517e-03       7.109665684618e+03 
       1.684376405989e-03       7.471270225861e+03 
       1.779166750967e-03       7.837738864851e+03 
       1.876429850833e-03       8.208702594505e+03 
       1.975976017456e-03       8.582914559801e+03 
       2.077622271174e-03       8.959242600223e+03 
       2.181194658309e-03       9.336921159826e+03 
       2.286529753772e-03       9.715143638356e+03 
       2.393475488136e-03       1.009263084208e+04 
       2.501891443004e-03       1.046917687501e+04 
       2.611648748361e-03       1.084410467132e+04 
       2.722629697703e-03       1.121678703543e+04 
       2.834727175922e-03       1.158677532268e+04 
       2.947843974518e-03       1.195377063700e+04 
       3.061892050352e-03       1.231705566053e+04 
       3.176791768689e-03       1.267647415984e+04 
       3.292471158869e-03       1.303187004629e+04 
       3.408865201286e-03       1.338288605585e+04 
       3.525915157127e-03       1.372938052321e+04 
       3.643567947026e-03       1.407117219151e+04 
       3.761775581091e-03       1.440813374194e+04 
       3.880494640194e-03       1.474001814411e+04 
       3.999685806755e-03       1.506679022435e+04 
       4.119313442251e-03       1.538841308802e+04 
       4.239345208075e-03       1.570482576693e+04 
       4.359751726185e-03       1.601602309107e+04 
       4.480506275889e-03       1.632188495409e+04 
       4.601584523252e-03       1.662241165232e+04 
       4.722964279805e-03       1.691752796786e+04 
       4.844625287440e-03       1.720732049231e+04 
       4.966549026677e-03       1.749177677186e+04 
       5.088718545709e-03       1.777088229852e+04 
       5.211118307922e-03       1.804474062599e+04 
       5.333734055804e-03       1.831917879934e+04 
       5.456552689399e-03       1.858773967233e+04 
       5.579562157648e-03       1.883862688170e+04 
       5.702751361174e-03       1.909880703285e+04 
       5.826110065209e-03       1.935290880305e+04 
       5.949628821524e-03       1.958307361264e+04 
       6.073298898347e-03       1.981837632069e+04 
       6.197112217396e-03       2.005380033427e+04 
       6.321061297216e-03       2.029331538141e+04 
       6.445139202150e-03       2.050640606368e+04 
       6.569339496315e-03       2.072911105235e+04 
       6.693656202045e-03       2.093048597227e+04 
       6.818083762324e-03       2.113975858643e+04 
       6.942617006792e-03       2.135147725770e+04 
       7.067251120928e-03       2.154605191209e+04 
       7.191981618107e-03       2.174573760145e+04 
       7.316804314206e-03       2.193132948012e+04 
       7.441715304526e-03       2.211399341663e+04 
       7.566710942773e-03       2.230423375644e+04 
       7.691787821906e-03       2.246811606444e+04 
       7.816942756663e-03       2.264028575710e+04 
       7.942172767603e-03       2.281291023774e+04 
       8.067475066510e-03       2.296893389665e+04 
       8.192847043043e-03       2.313467377209e+04 
       8.318286252496e-03       2.329108982732e+04 
       8.443790404579e-03       2.343515183633e+04 
       8.569357353116e-03       2.358853429044e+04 
       8.694985086582e-03       2.373669113519e+04 
       8.820671719401e-03       2.385708316446e+04 
       8.946415483930e-03       2.399636988652e+04 
       9.072214723085e-03       2.413119368395e+04 
       9.198067883531e-03       2.425111698081e+04 
       9.323973509406e-03       2.437277715528e+04 
       9.449930236522e-03       2.449878090142e+04 
       9.575936787007e-03       2.460864888632e+04 
       9.701991964347e-03       2.472186654885e+04 
       9.828094648806e-03       2.483038556538e+04 
       9.954243793172e-03       2.494520672855e+04 
       1.008043841883e-02       2.503332879036e+04 
       1.020667761210e-02       2.513431381826e+04 
       1.033296052087e-02       2.522696563959e+04 
       1.045928635145e-02       2.531831365389e+04 
       1.058565436565e-02       2.541805788535e+04 
       1.071206387807e-02       2.549274991857e+04 
       1.083851425360e-02       2.557797329534e+04 
       1.096500490503e-02       2.565780130411e+04 
       1.109153529095e-02       2.573873619990e+04 
       1.121810491367e-02       2.580465259082e+04 
       1.134471331735e-02       2.586719709318e+04 
       1.147136008625e-02       2.594357634152e+04 
       1.159804484309e-02       2.599447416973e+04 
       1.172476724756e-02       2.606103123800e+04 
       1.185152699488e-02       2.611925419769e+04 
       1.197832381451e-02       2.616718578401e+04 
       1.210515746889e-02       2.621875751916e+04 
       1.223202775236e-02       2.627112553820e+04 
       1.235893449006e-02       2.631217204779e+04 
       1.248587753697e-02       2.635506988817e+04 
       1.261285677700e-02       2.639860731480e+04 
       1.273987212213e-02       2.644306888344e+04 
       1.286692351165e-02       2.646874846200e+04 
       1.299401091142e-02       2.650114015490e+04 
       1.312113431322e-02       2.652894453943e+04 
       1.324829373410e-02       2.656542542358e+04 
       1.337548921584e-02       2.658330145621e+04 
       1.350272082442e-02       2.660499867256e+04 
       1.362998864954e-02       2.663410685464e+04 
       1.375729280417e-02       2.664218704519e+04 
       1.388463342417e-02       2.665730944584e+04 
       1.401201066791e-02       2.667313702197e+04 
       1.413942471595e-02       2.668688440737e+04 
       1.426687577076e-02       2.669083466631e+04 
       1.439436405644e-02       2.669627535812e+04 
       1.452188981849e-02       2.670702355751e+04 
       1.464945332360e-02       2.670378449691e+04 
       1.477705485950e-02       2.670564563635e+04 
       1.490469473479e-02       2.670499062812e+04 
       1.503237327885e-02       2.670448980619e+04 
       1.516009084168e-02       2.669378927004e+04 
       1.528784779389e-02       2.668731059835e+04 
       1.541564452661e-02       2.667794806750e+04 
       1.554348145148e-02       2.665962288365e+04 
       1.567135900064e-02       2.664986156468e+04 
       1.579927762672e-02       2.663573207324e+04 
       1.592723780292e-02       2.661716686268e+04 
       1.605524002302e-02       2.659720872736e+04 
       1.618328480148e-02       2.657727159126e+04 
       1.631137267350e-02       2.654863268509e+04 
       1.643950419516e-02       2.652702437819e+04 
       1.656767994355e-02       2.650152662569e+04 
       1.669590051690e-02       2.646829180419e+04 
       1.682416653472e-02       2.644412051470e+04 
       1.695247863803e-02       2.640951638247e+04 
       1.708083748954e-02       2.637421222837e+04 
       1.720924377385e-02       2.634119929958e+04 
       1.733769819767e-02       2.630333002621e+04 
       1.746620149012e-02       2.626563851054e+04 
       1.759475440293e-02       2.622619462773e+04 
       1.772335771078e-02       2.618919485410e+04 
       1.785201221154e-02       2.614692674374e+04 
       1.798071872665e-02       2.610320183090e+04 
       1.810947810138e-02       2.605998667051e+04 
       1.823829120522e-02       2.600912165357e+04 
       1.836715893225e-02       2.596262457029e+04 
       1.849608220148e-02       2.591752808692e+04 
       1.862506195729e-02       2.586510396534e+04 
       1.875409916983e-02       2.581283391628e+04 
       1.888319483543e-02       2.575846007559e+04 
       1.901234997709e-02       2.570355645273e+04 
       1.914156564491e-02       2.565159166313e+04 
       1.927084291660e-02       2.559461170531e+04 
       1.940018289798e-02       2.553347347854e+04 
       1.952958672349e-02       2.547507471985e+04 
       1.965905555674e-02       2.541446146154e+04 
       1.978859059106e-02       2.535620710567e+04 
       1.991819305010e-02       2.529146777222e+04 
       2.004786418842e-02       2.522897859334e+04 
       2.017760529210e-02       2.516892192216e+04 
       2.030741767939e-02       2.509959439942e+04 
       2.043730270137e-02       2.503225328873e+04 
       2.056726174266e-02       2.497024633061e+04 
       2.069729622208e-02       2.489672257577e+04 
       2.082740759341e-02       2.483009325501e+04 
       2.095759734613e-02       2.475841921788e+04 
       2.108786700621e-02       2.468749887440e+04 
       2.121821813693e-02       2.461883777486e+04 
       2.134865233965e-02       2.454357097860e+04 
       2.147917125471e-02       2.447104007065e+04 
       2.160977656231e-02       2.439568826889e+04 
       2.174046998340e-02       2.432111901034e+04 
       2.187125328063e-02       2.424627243544e+04 
       2.200212825930e-02       2.416829607869e+04 
       2.213309676840e-02       2.409239803751e+04 
       2.226416070157e-02       2.401722406220e+04 
       2.239532199823e-02       2.393705656848e+04 
       2.252658264462e-02       2.385574647820e+04 
       2.265794467496e-02       2.377803334750e+04 
       2.278941017259e-02       2.369703841732e+04 
       2.292098127121e-02       2.361565201931e+04 
       2.305266015608e-02       2.353234573661e+04 
       2.318444906528e-02       2.345249368331e+04 
       2.331635029109e-02       2.337039389459e+04 
       2.344836618130e-02       2.328330727147e+04 
       2.358049914064e-02       2.320069425541e+04 
       2.371275163218e-02       2.311561028589e+04 
       2.384512617889e-02       2.302968570971e+04 
       2.397762536514e-02       2.294524564921e+04 
       2.411025183828e-02       2.285905185957e+04 
       2.424300831034e-02       2.277227480910e+04 
       2.437589755965e-02       2.268505926815e+04 
       2.450892243266e-02       2.259874978074e+04 
       2.464208584570e-02       2.250964867679e+04 
       2.477539078688e-02       2.242421758615e+04 
       2.490884031801e-02       2.233357369024e+04 
       2.504243757659e-02       2.224509381540e+04 
       2.517618577788e-02       2.215672653513e+04 
       2.531008821704e-02       2.206607999521e+04 
       2.544414827130e-02       2.197696985671e+04 
       2.557836940229e-02       2.188784980656e+04 
       2.571275515836e-02       2.179486359488e+04 
       2.584730917703e-02       2.170455969590e+04 
       2.598203518750e-02       2.161373719617e+04 
       2.611693701331e-02       2.152202740635e+04 
       2.625201857497e-02       2.142981496180e+04 
       2.638728389280e-02       2.133789506685e+04 
       2.652273708986e-02       2.124715792526e+04 
       2.665838239487e-02       2.115335265500e+04 
       2.679422414540e-02       2.106189335753e+04 
       2.693026679105e-02       2.097063247185e+04 
       2.706651489679e-02       2.087582007109e+04 
       2.720297314645e-02       2.078272482101e+04 
       2.733964634628e-02       2.068962878006e+04 
       2.747653942871e-02       2.059709736553e+04 
       2.761365745620e-02       2.050482807234e+04 
       2.775100562523e-02       2.040847853028e+04 
       2.788858927051e-02       2.031549637497e+04 
       2.802641386928e-02       2.022353995189e+04 
       2.816448504579e-02       2.012717237286e+04 
       2.830280857602e-02       2.003426257513e+04 
       2.844139039246e-02       1.993943495959e+04 
       2.858023658921e-02       1.984498030471e+04 
       2.871935342722e-02       1.975112331878e+04 
       2.885874733973e-02       1.965774171646e+04 
       2.899842493793e-02       1.956258580417e+04 
       2.913839301694e-02       1.946876309364e+04 
       2.927865856187e-02       1.937523464950e+04 
       2.941922875434e-02       1.928070693901e+04 
       2.956011097904e-02       1.918698670198e+04 
       2.970131283080e-02       1.909265268099e+04 
       2.984284212177e-02       1.899777603243e+04 
       2.998470688905e-02       1.890331305521e+04 
       3.012691540254e-02       1.880833383149e+04 
       3.026947617321e-02       1.871471952848e+04 
       3.041239796172e-02       1.861970968577e+04 
       3.055568978739e-02       1.852667940655e+04 
       3.069936093760e-02       1.843166027197e+04 
       3.084342097764e-02       1.833813918684e+04 
       3.098787976093e-02       1.824410680403e+04 
       3.113274743983e-02       1.814970633940e+04 
       3.127803447684e-02       1.805689572811e+04 
       3.142375165639e-02       1.796258782775e+04 
       3.156991009718e-02       1.786864688617e+04 
       3.171652126512e-02       1.777602304697e+04 
       3.186359698686e-02       1.768154403558e+04 
       3.201114946401e-02       1.758881563274e+04 
       3.215919128808e-02       1.749545216130e+04 
       3.230773545612e-02       1.740227333431e+04 
       3.245679538717e-02       1.731001754683e+04 
       3.260638493957e-02       1.721649552421e+04 
       3.275651842910e-02       1.712438656895e+04 
       3.290721064813e-02       1.703205611558e+04 
       3.305847688571e-02       1.693861568099e+04 
       3.321033294880e-02       1.684719454183e+04 
       3.336279518453e-02       1.675425672499e+04 
       3.351588050380e-02       1.666312835021e+04 
       3.366960640604e-02       1.657078586324e+04 
       3.382399100542e-02       1.647923838018e+04 
       3.397905305851e-02       1.638672530997e+04 
       3.413481199349e-02       1.629652717878e+04 
       3.429128794103e-02       1.620473263541e+04 
       3.444850176698e-02       1.611327310255e+04 
       3.460647510692e-02       1.602189795167e+04 
       3.476523040284e-02       1.593125669549e+04 
       3.492479094189e-02       1.584044951000e+04 
       3.508518089763e-02       1.575020803858e+04 
       3.524642537365e-02       1.565970111745e+04 
       3.540855045002e-02       1.557042596472e+04 
       3.557158323260e-02       1.548070027697e+04 
       3.573555190545e-02       1.538984935786e+04 
       3.590048578671e-02       1.530052431892e+04 
       3.606641538803e-02       1.521101379363e+04 
       3.623337247794e-02       1.512203052547e+04 
       3.640139014950e-02       1.503264066286e+04 
       3.657050289249e-02       1.494319055727e+04 
       3.674074667055e-02       1.485497030572e+04 
       3.691215900371e-02       1.476611457613e+04 
       3.708477905671e-02       1.467705243013e+04 
       3.725864773366e-02       1.458919136791e+04 
       3.743380777952e-02       1.450107700667e+04 
       3.761030388905e-02       1.441249229570e+04 
       3.778818282389e-02       1.432487185841e+04 
       3.796749353849e-02       1.423684652321e+04 
       3.814828731566e-02       1.414906408602e+04 
       3.833061791270e-02       1.406187991430e+04 
       3.851454171908e-02       1.397422832290e+04 
       3.870011792675e-02       1.388718570224e+04 
       3.888740871433e-02       1.379999013960e+04 
       3.907647944654e-02       1.371328289312e+04 
       3.926739889036e-02       1.362593399953e+04 
       3.946023944973e-02       1.353943578758e+04 
       3.965507742051e-02       1.345278532265e+04 
       3.985199326805e-02       1.336579260881e+04 
       4.005107192959e-02       1.327971951145e+04 
       4.025240314430e-02       1.319281585934e+04 
       4.045608181401e-02       1.310678802607e+04 
       4.066220839794e-02       1.302073033104e+04 
       4.087088934549e-02       1.293403453213e+04 
       4.108223757143e-02       1.284788037324e+04 
       4.129637297849e-02       1.276136055071e+04 
       4.151342303310e-02       1.267538423828e+04 
       4.173352340082e-02       1.258887562888e+04 
       4.195681864890e-02       1.250306342732e+04 
       4.218346302459e-02       1.241636140195e+04 
       4.241362131896e-02       1.233059466233e+04 
       4.264746982779e-02       1.224383889773e+04 
       4.288519742240e-02       1.215758031973e+04 
       4.312700674591e-02       1.207079644014e+04 
       4.337311555250e-02       1.198424512137e+04 
       4.362375821031e-02       1.189748328828e+04 
       4.387918739221e-02       1.181089428574e+04 
       4.413967598269e-02       1.172340681858e+04 
       4.440551923422e-02       1.163618607902e+04 
       4.467703721248e-02       1.154843391879e+04 
       4.495457757708e-02       1.146101304073e+04 
       4.523851875324e-02       1.137290159346e+04 
       4.552927356060e-02       1.128420470481e+04 
       4.582729337861e-02       1.119552880168e+04 
       4.613307294371e-02       1.110620299957e+04 
       4.644715589373e-02       1.101670590101e+04 
       4.677014119900e-02       1.092632761935e+04 
       4.710269065044e-02       1.083524574536e+04 
       4.744553761268e-02       1.074372866857e+04 
       4.779949729759e-02       1.065178597578e+04 
       4.816547887354e-02       1.055859974669e+04 
       4.854449980089e-02       1.046495614878e+04 
       4.893770287958e-02       1.037009549002e+04 
       4.934637661582e-02       1.027449364676e+04 
       4.977197966920e-02       1.017722362067e+04 
       5.021617033789e-02       1.007911392006e+04 
       5.068084229045e-02       9.979240140110e+03 
       5.116816807090e-02       9.877347367831e+03 
       5.168065230625e-02       9.773886714436e+03 
       5.222119704809e-02       9.668491335124e+03 
       5.279318229496e-02       9.560134026259e+03 
       5.340056546650e-02       9.449297907825e+03 
       5.404800439806e-02       9.334961424487e+03 
       5.474100917417e-02       9.216813809289e+03 
       5.548612853886e-02       9.093921293229e+03 
       5.629117608749e-02       8.965817102439e+03 
       5.716549869733e-02       8.831191606854e+03 
       5.812028225015e-02       8.688759101401e+03 
       5.916887318511e-02       8.536328726069e+03 
       6.032706133610e-02       8.372192612644e+03 
