# Matter power spectrum P(k) at redshift z=0
# for k=1.01385e-05 to 1.55851 h/Mpc,
# number of wavenumbers equal to 564
#    1:k (h/Mpc)              2:P (Mpc/h)^3        
       1.013852874376e-05       4.489010880694e+01 
       2.295667331042e-05       9.852786681999e+01 
       3.581876906051e-05       1.511454792191e+02 
       4.875908315101e-05       2.033757183279e+02 
       6.181243804206e-05       2.554969586274e+02 
       7.501451898922e-05       3.077807224228e+02 
       8.840219119715e-05       3.604367202467e+02 
       1.020138308183e-04       4.136566220559e+02 
       1.158896740117e-04       4.676253750061e+02 
       1.300721883111e-04       5.225257067999e+02 
       1.446064705596e-04       5.785433936756e+02 
       1.595406756158e-04       6.358702746058e+02 
       1.749264798753e-04       6.947070299370e+02 
       1.908195833079e-04       7.552657224798e+02 
       2.072802531015e-04       8.177722452683e+02 
       2.243739110015e-04       8.824687625166e+02 
       2.421717648810e-04       9.496161962299e+02 
       2.607514827684e-04       1.018221620422e+03 
       2.801979042415e-04       1.090971523320e+03 
       3.006037794516e-04       1.167069021637e+03 
       3.220705197260e-04       1.246374313875e+03 
       3.447089353051e-04       1.330279316568e+03 
       3.686399249581e-04       1.418482252351e+03 
       3.939950687053e-04       1.511281485409e+03 
       4.209170586550e-04       1.610081408303e+03 
       4.495598844629e-04       1.713685001329e+03 
       4.800886703287e-04       1.824963534182e+03 
       5.126790420322e-04       1.942069133840e+03 
       5.475158889936e-04       2.065953850582e+03 
       5.847913831011e-04       2.199123650404e+03 
       6.247021299826e-04       2.341474802541e+03 
       6.674453671094e-04       2.490817854695e+03 
       7.132141931448e-04       2.650944469361e+03 
       7.621919168965e-04       2.821343352070e+03 
       8.145457472053e-04       3.001972039011e+03 
       8.704201916300e-04       3.193697794291e+03 
       9.299306650122e-04       3.396165013747e+03 
       9.931578943126e-04       3.609231796403e+03 
       1.060143709963e-03       3.832893767515e+03 
       1.130888716227e-03       4.066988410150e+03 
       1.205352138036e-03       4.310852603110e+03 
       1.283453881990e-03       4.564031420228e+03 
       1.365078578349e-03       4.825876888789e+03 
       1.450081146770e-03       5.095118412121e+03 
       1.538293295021e-03       5.371242412444e+03 
       1.629530333205e-03       5.653234573794e+03 
       1.723597754223e-03       5.940183866893e+03 
       1.820297162509e-03       6.231298141438e+03 
       1.919431289291e-03       6.525467604803e+03 
       2.020807981096e-03       6.821870799787e+03 
       2.124243167883e-03       7.119905317018e+03 
       2.229562899590e-03       7.418793341181e+03 
       2.336604586363e-03       7.717867187597e+03 
       2.445217594981e-03       8.016585112725e+03 
       2.555263350880e-03       8.314279377919e+03 
       2.666615079784e-03       8.610625703036e+03 
       2.779157301808e-03       8.905143018478e+03 
       2.892785168496e-03       9.197515215675e+03 
       3.007403712258e-03       9.487283425189e+03 
       3.122927059458e-03       9.774300226482e+03 
       3.239277643478e-03       1.005829305585e+04 
       3.356385442296e-03       1.033900661296e+04 
       3.474187256169e-03       1.061631051041e+04 
       3.592626034388e-03       1.089003408878e+04 
       3.711650255379e-03       1.116003347613e+04 
       3.831213361128e-03       1.142621662274e+04 
       3.951273244755e-03       1.168843997291e+04 
       4.071791788678e-03       1.194670206025e+04 
       4.192734450014e-03       1.220091361748e+04 
       4.314069889484e-03       1.245103169587e+04 
       4.435769639950e-03       1.269698937307e+04 
       4.557807810782e-03       1.293878670386e+04 
       4.680160824440e-03       1.317640989505e+04 
       4.802807181858e-03       1.340984218274e+04 
       4.925727253534e-03       1.363905357411e+04 
       5.048903093466e-03       1.386407451342e+04 
       5.172318273396e-03       1.408490823745e+04 
       5.295957735045e-03       1.430158824797e+04 
       5.419807658303e-03       1.451412935137e+04 
       5.543855343561e-03       1.472255747242e+04 
       5.668089106551e-03       1.492681161389e+04 
       5.792498184290e-03       1.512691666895e+04 
       5.917072650849e-03       1.532291687114e+04 
       6.041803341855e-03       1.551489360558e+04 
       6.166681786715e-03       1.570297169862e+04 
       6.291700147732e-03       1.588720038157e+04 
       6.416851165319e-03       1.607482181056e+04 
       6.542128108656e-03       1.624788122233e+04 
       6.667524731192e-03       1.642139265709e+04 
       6.793035230464e-03       1.659057829433e+04 
       6.918654211769e-03       1.675627230936e+04 
       7.044376655289e-03       1.691788902207e+04 
       7.170197886295e-03       1.706842623735e+04 
       7.296113548110e-03       1.722316464626e+04 
       7.422119577556e-03       1.737191078321e+04 
       7.548212182617e-03       1.751958251133e+04 
       7.674387822114e-03       1.766252100166e+04 
       7.800643187166e-03       1.780271250735e+04 
       7.926975184282e-03       1.793930177340e+04 
       8.053380919912e-03       1.807289740122e+04 
       8.179857686323e-03       1.819830712809e+04 
       8.306402948672e-03       1.832432532218e+04 
       8.433014333151e-03       1.844691228513e+04 
       8.559689616129e-03       1.856614628055e+04 
       8.686426714169e-03       1.868164506854e+04 
       8.813223674864e-03       1.879469672432e+04 
       8.940078668404e-03       1.890459208265e+04 
       9.066989979817e-03       1.901138543519e+04 
       9.193956001810e-03       1.911444699195e+04 
       9.320975228185e-03       1.921519911844e+04 
       9.448046247742e-03       1.931302437384e+04 
       9.575167738669e-03       1.940777946170e+04 
       9.702338463341e-03       1.949949903981e+04 
       9.829557263515e-03       1.958889270715e+04 
       9.956823055891e-03       1.967374422535e+04 
       1.008413482799e-02       1.975899880627e+04 
       1.021149163432e-02       1.983689363678e+04 
       1.033889259289e-02       1.991254253274e+04 
       1.046633688186e-02       1.998945147812e+04 
       1.059382373656e-02       2.005969511718e+04 
       1.072135244660e-02       2.012928140288e+04 
       1.084892235330e-02       2.019461472226e+04 
       1.097653284721e-02       2.025764477355e+04 
       1.110418336585e-02       2.032060895236e+04 
       1.123187339161e-02       2.037791267982e+04 
       1.135960244978e-02       2.043497251338e+04 
       1.148737010673e-02       2.049137080316e+04 
       1.161517596818e-02       2.054122321248e+04 
       1.174301967768e-02       2.059358723996e+04 
       1.187090091508e-02       2.063600964948e+04 
       1.199881939522e-02       2.068030085026e+04 
       1.212677486659e-02       2.072553436208e+04 
       1.225476711022e-02       2.076235553590e+04 
       1.238279593853e-02       2.079996708514e+04 
       1.251086119433e-02       2.083575786209e+04 
       1.263896274987e-02       2.087258350232e+04 
       1.276710050596e-02       2.089891247124e+04 
       1.289527439115e-02       2.093019585566e+04 
       1.302348436099e-02       2.095649770328e+04 
       1.315173039733e-02       2.098045103776e+04 
       1.328001250764e-02       2.100571635653e+04 
       1.340833072448e-02       2.102603432487e+04 
       1.353668510489e-02       2.104381079116e+04 
       1.366507572993e-02       2.105935924623e+04 
       1.379350270422e-02       2.107323490937e+04 
       1.392196615548e-02       2.108676871216e+04 
       1.405046623421e-02       2.109896995798e+04 
       1.417900311328e-02       2.110606683959e+04 
       1.430757698768e-02       2.111307149284e+04 
       1.443618807421e-02       2.111976519052e+04 
       1.456483661123e-02       2.112310617481e+04 
       1.469352285846e-02       2.112536532886e+04 
       1.482224709679e-02       2.112384494779e+04 
       1.495100962810e-02       2.112566352039e+04 
       1.507981077515e-02       2.112192220858e+04 
       1.520865088147e-02       2.111651728733e+04 
       1.533753031126e-02       2.111063933834e+04 
       1.546644944931e-02       2.109994700311e+04 
       1.559540870104e-02       2.109225724653e+04 
       1.572440849237e-02       2.107917069084e+04 
       1.585344926983e-02       2.106671464740e+04 
       1.598253150052e-02       2.105250996583e+04 
       1.611165567216e-02       2.103781397400e+04 
       1.624082229319e-02       2.101889021532e+04 
       1.637003189283e-02       2.100052272389e+04 
       1.649928502116e-02       2.098120238037e+04 
       1.662858224929e-02       2.095999190831e+04 
       1.675792416946e-02       2.093613993101e+04 
       1.688731139520e-02       2.091338018298e+04 
       1.701674456153e-02       2.088561121111e+04 
       1.714622432512e-02       2.085885873750e+04 
       1.727575136452e-02       2.083095956119e+04 
       1.740532638036e-02       2.080202357436e+04 
       1.753495009561e-02       2.077032900339e+04 
       1.766462325584e-02       2.073949942379e+04 
       1.779434662949e-02       2.070490712165e+04 
       1.792412100815e-02       2.067172509940e+04 
       1.805394720688e-02       2.063489656007e+04 
       1.818382606455e-02       2.060047463151e+04 
       1.831375844413e-02       2.056063350849e+04 
       1.844374523311e-02       2.052166002896e+04 
       1.857378734382e-02       2.048312112666e+04 
       1.870388571387e-02       2.044052777320e+04 
       1.883404130653e-02       2.040080496208e+04 
       1.896425511114e-02       2.035625356423e+04 
       1.909452814361e-02       2.031159824993e+04 
       1.922486144682e-02       2.026628300021e+04 
       1.935525609114e-02       2.022154650247e+04 
       1.948571317488e-02       2.017305907744e+04 
       1.961623382489e-02       2.012564136528e+04 
       1.974681919699e-02       2.007609182211e+04 
       1.987747047662e-02       2.002639303076e+04 
       2.000818887933e-02       1.997772867213e+04 
       2.013897565144e-02       1.992519062041e+04 
       2.026983207061e-02       1.987224560211e+04 
       2.040075944650e-02       1.981943587623e+04 
       2.053175912139e-02       1.976461334943e+04 
       2.066283247091e-02       1.971017708192e+04 
       2.079398090469e-02       1.965575619238e+04 
       2.092520586711e-02       1.959911545210e+04 
       2.105650883804e-02       1.954039698044e+04 
       2.118789133359e-02       1.948382424742e+04 
       2.131935490695e-02       1.942455147535e+04 
       2.145090114914e-02       1.936604784586e+04 
       2.158253168992e-02       1.930528068477e+04 
       2.171424819862e-02       1.924542218483e+04 
       2.184605238506e-02       1.918346203782e+04 
       2.197794600048e-02       1.912178268837e+04 
       2.210993083847e-02       1.906005177435e+04 
       2.224200873597e-02       1.899621896450e+04 
       2.237418157431e-02       1.893228233908e+04 
       2.250645128021e-02       1.886906595867e+04 
       2.263881982692e-02       1.880348376637e+04 
       2.277128923529e-02       1.873784944850e+04 
       2.290386157493e-02       1.867229233439e+04 
       2.303653896540e-02       1.860692880224e+04 
       2.316932357746e-02       1.853890038401e+04 
       2.330221763427e-02       1.847270175438e+04 
       2.343522341277e-02       1.840468453886e+04 
       2.356834324496e-02       1.833636223344e+04 
       2.370157951931e-02       1.826678849100e+04 
       2.383493468219e-02       1.819775480698e+04 
       2.396841123935e-02       1.812836047649e+04 
       2.410201175744e-02       1.805855911790e+04 
       2.423573886558e-02       1.798936804870e+04 
       2.436959525698e-02       1.791788379482e+04 
       2.450358369061e-02       1.784742090874e+04 
       2.463770699297e-02       1.777550681607e+04 
       2.477196805982e-02       1.770360921734e+04 
       2.490636985806e-02       1.763119996908e+04 
       2.504091542763e-02       1.755903790661e+04 
       2.517560788347e-02       1.748587932402e+04 
       2.531045041758e-02       1.741381202092e+04 
       2.544544630111e-02       1.733955995215e+04 
       2.558059888652e-02       1.726616458888e+04 
       2.571591160984e-02       1.719273618606e+04 
       2.585138799303e-02       1.711834112065e+04 
       2.598703164632e-02       1.704378105116e+04 
       2.612284627076e-02       1.696981478275e+04 
       2.625883566075e-02       1.689532218135e+04 
       2.639500370674e-02       1.681975222978e+04 
       2.653135439795e-02       1.674444166788e+04 
       2.666789182528e-02       1.666979192018e+04 
       2.680462018423e-02       1.659386834919e+04 
       2.694154377797e-02       1.651802953758e+04 
       2.707866702051e-02       1.644287840144e+04 
       2.721599444001e-02       1.636646029819e+04 
       2.735353068221e-02       1.629037623561e+04 
       2.749128051389e-02       1.621371042281e+04 
       2.762924882662e-02       1.613728508269e+04 
       2.776744064053e-02       1.606101157936e+04 
       2.790586110827e-02       1.598445799008e+04 
       2.804451551910e-02       1.590829240169e+04 
       2.818340930314e-02       1.583131174318e+04 
       2.832254803581e-02       1.575437821210e+04 
       2.846193744243e-02       1.567760664790e+04 
       2.860158340294e-02       1.560087644190e+04 
       2.874149195691e-02       1.552341949394e+04 
       2.888166930869e-02       1.544656227332e+04 
       2.902212183275e-02       1.536902849548e+04 
       2.916285607926e-02       1.529233742243e+04 
       2.930387877994e-02       1.521489573339e+04 
       2.944519685405e-02       1.513758132816e+04 
       2.958681741471e-02       1.506059764344e+04 
       2.972874777546e-02       1.498285920769e+04 
       2.987099545708e-02       1.490582240713e+04 
       3.001356819473e-02       1.482846586226e+04 
       3.015647394536e-02       1.475176932664e+04 
       3.029972089545e-02       1.467428597934e+04 
       3.044331746915e-02       1.459674048262e+04 
       3.058727233663e-02       1.451981202623e+04 
       3.073159442296e-02       1.444264916033e+04 
       3.087629291731e-02       1.436600952538e+04 
       3.102137728253e-02       1.428888421036e+04 
       3.116685726527e-02       1.421134763887e+04 
       3.131274290645e-02       1.413500671157e+04 
       3.145904455227e-02       1.405759658010e+04 
       3.160577286579e-02       1.398126312415e+04 
       3.175293883893e-02       1.390407441837e+04 
       3.190055380514e-02       1.382741929606e+04 
       3.204862945265e-02       1.375118383681e+04 
       3.219717783838e-02       1.367416307743e+04 
       3.234621140246e-02       1.359774804793e+04 
       3.249574298359e-02       1.352166733887e+04 
       3.264578583506e-02       1.344534921219e+04 
       3.279635364166e-02       1.336897712267e+04 
       3.294746053737e-02       1.329321720867e+04 
       3.309912112402e-02       1.321698568961e+04 
       3.325135049094e-02       1.314107905819e+04 
       3.340416423559e-02       1.306534180454e+04 
       3.355757848528e-02       1.298959087068e+04 
       3.371160992015e-02       1.291400310993e+04 
       3.386627579729e-02       1.283881750112e+04 
       3.402159397623e-02       1.276332754644e+04 
       3.417758294587e-02       1.268794694039e+04 
       3.433426185288e-02       1.261281369460e+04 
       3.449165053172e-02       1.253780274111e+04 
       3.464976953640e-02       1.246323938187e+04 
       3.480864017405e-02       1.238829029429e+04 
       3.496828454054e-02       1.231343869060e+04 
       3.512872555808e-02       1.223930308755e+04 
       3.528998701521e-02       1.216464887233e+04 
       3.545209360916e-02       1.209021032352e+04 
       3.561507099081e-02       1.201631332700e+04 
       3.577894581245e-02       1.194232757673e+04 
       3.594374577861e-02       1.186799361375e+04 
       3.610949970004e-02       1.179430150452e+04 
       3.627623755124e-02       1.172055318134e+04 
       3.644399053175e-02       1.164694603889e+04 
       3.661279113146e-02       1.157359782505e+04 
       3.678267320038e-02       1.150001554505e+04 
       3.695367202303e-02       1.142701828715e+04 
       3.712582439812e-02       1.135357727822e+04 
       3.729916872366e-02       1.128074797557e+04 
       3.747374508816e-02       1.120772078898e+04 
       3.764959536834e-02       1.113483769152e+04 
       3.782676333399e-02       1.106205966616e+04 
       3.800529476057e-02       1.098937101239e+04 
       3.818523755014e-02       1.091675003744e+04 
       3.836664186163e-02       1.084430078534e+04 
       3.854956025106e-02       1.077187419446e+04 
       3.873404782268e-02       1.069979157020e+04 
       3.892016239225e-02       1.062741955713e+04 
       3.910796466333e-02       1.055517516815e+04 
       3.929751841812e-02       1.048321742456e+04 
       3.948889072411e-02       1.041107798019e+04 
       3.968215215822e-02       1.033922313975e+04 
       3.987737705013e-02       1.026712382044e+04 
       4.007464374695e-02       1.019530617302e+04 
       4.027403490128e-02       1.012334282523e+04 
       4.047563778531e-02       1.005155649443e+04 
       4.067954463378e-02       9.979676325189e+03 
       4.088585301891e-02       9.907736404545e+03 
       4.109466626107e-02       9.835956876328e+03 
       4.130609387913e-02       9.764218315216e+03 
       4.152025208524e-02       9.692270928516e+03 
       4.173726432931e-02       9.620322954508e+03 
       4.195726189915e-02       9.548248842531e+03 
       4.218038458334e-02       9.476318180308e+03 
       4.240678140444e-02       9.404217731576e+03 
       4.263661143190e-02       9.331950896335e+03 
       4.287004468487e-02       9.259754937419e+03 
       4.310726313707e-02       9.187157065545e+03 
       4.334846183759e-02       9.114621469057e+03 
       4.359385016378e-02       9.041846981677e+03 
       4.384365322505e-02       8.969054564452e+03 
       4.409811343950e-02       8.895805555570e+03 
       4.435749230910e-02       8.822391760941e+03 
       4.462207242347e-02       8.748784159188e+03 
       4.489215972797e-02       8.674877482701e+03 
       4.516808609799e-02       8.600633281895e+03 
       4.545021226929e-02       8.526080175795e+03 
       4.573893118380e-02       8.451148066387e+03 
       4.603467182170e-02       8.375786520271e+03 
       4.633790360497e-02       8.300009491868e+03 
       4.664914147476e-02       8.223654928760e+03 
       4.696895176653e-02       8.146765087724e+03 
       4.729795903349e-02       8.069282608810e+03 
       4.763685400161e-02       7.991148668717e+03 
       4.798640288109e-02       7.912263464787e+03 
       4.834745831053e-02       7.832574588257e+03 
       4.872097227523e-02       7.751975843139e+03 
       4.910801142325e-02       7.670482476409e+03 
       4.950977530693e-02       7.587829259171e+03 
       4.992761821015e-02       7.504036053108e+03 
       5.036307539015e-02       7.418839234135e+03 
       5.081789477796e-02       7.332271656387e+03 
       5.129407545527e-02       7.243994367372e+03 
       5.179391457332e-02       7.153907508357e+03 
       5.232006481734e-02       7.061766266005e+03 
       5.287560506379e-02       6.967330191487e+03 
       5.346412753662e-02       6.870278874543e+03 
       5.408984553120e-02       6.770248382981e+03 
       5.475772658247e-02       6.666819550611e+03 
       5.547365664327e-02       6.559419044160e+03 
       5.624464103503e-02       6.447413723386e+03 
       5.707904683637e-02       6.330066343824e+03 
       5.798688739033e-02       6.206426355314e+03 
       5.898013970419e-02       6.075263466048e+03 
       6.007306428861e-02       5.935118380155e+03 
       6.128245575129e-02       5.784147679711e+03 
