# Matter power spectrum P(k) at redshift z=0
# for k=1.04363e-05 to 1.75778 h/Mpc,
# number of wavenumbers equal to 569
#    1:k (h/Mpc)              2:P (Mpc/h)^3        
       1.043629910889e-05       5.265543841050e+01 
       2.329883968692e-05       1.140085649449e+02 
       3.620648841426e-05       1.742155526412e+02 
       4.919387499763e-05       2.339523764188e+02 
       6.229620032909e-05       2.935992650283e+02 
       7.554954946945e-05       3.534384839727e+02 
       8.899121461239e-05       4.137096570073e+02 
       1.026600323138e-04       4.746323506930e+02 
       1.165967393029e-04       5.364175891005e+02 
       1.308443512264e-04       5.992747756266e+02 
       1.454485686821e-04       6.634164572795e+02 
       1.604582148415e-04       7.290619984805e+02 
       1.759257087856e-04       7.964406868955e+02 
       1.919075783166e-04       8.657945492027e+02 
       2.084650153597e-04       9.373810327740e+02 
       2.256644760116e-04       1.011475641652e+03 
       2.435783256577e-04       1.088374572522e+03 
       2.622855271447e-04       1.168397364599e+03 
       2.818723665088e-04       1.251889548336e+03 
       3.024332058764e-04       1.339225248858e+03 
       3.240712465208e-04       1.430809664397e+03 
       3.468992762619e-04       1.527081300263e+03 
       3.710403640703e-04       1.628513788261e+03 
       3.966284506231e-04       1.735617064146e+03 
       4.238087666712e-04       1.848937606485e+03 
       4.527379919196e-04       1.969057373017e+03 
       4.835840470096e-04       2.096590994104e+03 
       5.165253925940e-04       2.232180733714e+03 
       5.517496964266e-04       2.376488696625e+03 
       5.894517275726e-04       2.530185794891e+03 
       6.298303535460e-04       2.693937095033e+03 
       6.730845592381e-04       2.868383394352e+03 
       7.194084823716e-04       3.054119223156e+03 
       7.689855708834e-04       3.251667953328e+03 
       8.219821069020e-04       3.461455260600e+03 
       8.785404923823e-04       3.683782772747e+03 
       9.387728239434e-04       3.918804200854e+03 
       1.002755362814e-03       4.166506479265e+03 
       1.070524496441e-03       4.426698274427e+03 
       1.142074673307e-03       4.699007636686e+03 
       1.217358580318e-03       4.982889581254e+03 
       1.296289560167e-03       5.277643151770e+03 
       1.378745991541e-03       5.582419306685e+03 
       1.464577136821e-03       5.896274617737e+03 
       1.553609841372e-03       6.218231189915e+03 
       1.645655457900e-03       6.547250342975e+03 
       1.740516452256e-03       6.882285753660e+03 
       1.837992288643e-03       7.222308196105e+03 
       1.937884353309e-03       7.566325415971e+03 
       2.039999824318e-03       7.913397057576e+03 
       2.144154511490e-03       8.262644825745e+03 
       2.250174768432e-03       8.613258509287e+03 
       2.357898620220e-03       8.964498422767e+03 
       2.467176263562e-03       9.315695115547e+03 
       2.577870090096e-03       9.666247148433e+03 
       2.689854366101e-03       1.001561762268e+04 
       2.803014679686e-03       1.036332993773e+04 
       2.917247243569e-03       1.070896309442e+04 
       3.032458120551e-03       1.105214689772e+04 
       3.148562420725e-03       1.139255699521e+04 
       3.265483504824e-03       1.172991041449e+04 
       3.383152216668e-03       1.206396114239e+04 
       3.501506159003e-03       1.239449633317e+04 
       3.620489020738e-03       1.272133271108e+04 
       3.740049959068e-03       1.304431334692e+04 
       3.860143036911e-03       1.336330474216e+04 
       3.980726714077e-03       1.367819420709e+04 
       4.101763389291e-03       1.398888767068e+04 
       4.223218989548e-03       1.429530745143e+04 
       4.345062602894e-03       1.459739053812e+04 
       4.467266150682e-03       1.489508674907e+04 
       4.589804095468e-03       1.518835721792e+04 
       4.712653180852e-03       1.547717320137e+04 
       4.835792199901e-03       1.576151497551e+04 
       4.959201789000e-03       1.604137012599e+04 
       5.082864244321e-03       1.631673308133e+04 
       5.206763358353e-03       1.658760412401e+04 
       5.330884274218e-03       1.685398711395e+04 
       5.455213355730e-03       1.711589322826e+04 
       5.579738071415e-03       1.737333761372e+04 
       5.704446890868e-03       1.762633822386e+04 
       5.829329192068e-03       1.787491628691e+04 
       5.954375178371e-03       1.811909586424e+04 
       6.079575804111e-03       1.835890359222e+04 
       6.204922707824e-03       1.859436832402e+04 
       6.330408152247e-03       1.882552090440e+04 
       6.456024970336e-03       1.905239367792e+04 
       6.581766516647e-03       1.927502052316e+04 
       6.707626623481e-03       1.949343638231e+04 
       6.833599561287e-03       1.970767747402e+04 
       6.959680002868e-03       1.991778015535e+04 
       7.085862990972e-03       2.012378232026e+04 
       7.212143908930e-03       2.032572157830e+04 
       7.338518454005e-03       2.052363674135e+04 
       7.464982613189e-03       2.071756640660e+04 
       7.591532641188e-03       2.090754948442e+04 
       7.718165040376e-03       2.109362568758e+04 
       7.844876542523e-03       2.127583434107e+04 
       7.971664092123e-03       2.145421539350e+04 
       8.098524831162e-03       2.162880787395e+04 
       8.225456085185e-03       2.179965189317e+04 
       8.352455350551e-03       2.196678787201e+04 
       8.479520282742e-03       2.213025481785e+04 
       8.606648685648e-03       2.229009258348e+04 
       8.733838501728e-03       2.244634036484e+04 
       8.861087802963e-03       2.259903762156e+04 
       8.988394782540e-03       2.274822308813e+04 
       9.115757747194e-03       2.289393557794e+04 
       9.243175110151e-03       2.303621320625e+04 
       9.370645384623e-03       2.317509423124e+04 
       9.498167177801e-03       2.331061647293e+04 
       9.625739185308e-03       2.344281729224e+04 
       9.753360186078e-03       2.357173379111e+04 
       9.881029037609e-03       2.369740328766e+04 
       1.000874467158e-02       2.381986225410e+04 
       1.013650608977e-02       2.393914772144e+04 
       1.026431236032e-02       2.405529501474e+04 
       1.039216261424e-02       2.416834073002e+04 
       1.052005604211e-02       2.427832039604e+04 
       1.064799189118e-02       2.438526922690e+04 
       1.077596946248e-02       2.448922213013e+04 
       1.090398810826e-02       2.459021389615e+04 
       1.103204722962e-02       2.468827861368e+04 
       1.116014627420e-02       2.478345030982e+04 
       1.128828473416e-02       2.487576209074e+04 
       1.141646214419e-02       2.496524809046e+04 
       1.154467807976e-02       2.505193910015e+04 
       1.167293215541e-02       2.513586902359e+04 
       1.180122402318e-02       2.521707048714e+04 
       1.192955337121e-02       2.529557408174e+04 
       1.205791992233e-02       2.537141280092e+04 
       1.218632343285e-02       2.544461789841e+04 
       1.231476369140e-02       2.551522114215e+04 
       1.244324051779e-02       2.558325334719e+04 
       1.257175376206e-02       2.564874658857e+04 
       1.270030330353e-02       2.571173097570e+04 
       1.282888904991e-02       2.577223762423e+04 
       1.295751093655e-02       2.583029609749e+04 
       1.308616892563e-02       2.588593609632e+04 
       1.321486300553e-02       2.593918463125e+04 
       1.334359319016e-02       2.599007063152e+04 
       1.347235951839e-02       2.603862285801e+04 
       1.360116205352e-02       2.608486977296e+04 
       1.373000088278e-02       2.612884014968e+04 
       1.385887611687e-02       2.617056230183e+04 
       1.398778788955e-02       2.621006336499e+04 
       1.411673635729e-02       2.624737206174e+04 
       1.424572169890e-02       2.628251530681e+04 
       1.437474411527e-02       2.631552026691e+04 
       1.450380382905e-02       2.634641385258e+04 
       1.463290108443e-02       2.637522274134e+04 
       1.476203614695e-02       2.640197339710e+04 
       1.489120930330e-02       2.642669205201e+04 
       1.502042086114e-02       2.644940473052e+04 
       1.514967114902e-02       2.647013724948e+04 
       1.527896051626e-02       2.648891521187e+04 
       1.540828933285e-02       2.650576401532e+04 
       1.553765798942e-02       2.652070885892e+04 
       1.566706689717e-02       2.653377474462e+04 
       1.579651648792e-02       2.654498646550e+04 
       1.592600721405e-02       2.655436864019e+04 
       1.605553954858e-02       2.656194567404e+04 
       1.618511398519e-02       2.656774179392e+04 
       1.631473103831e-02       2.657178103799e+04 
       1.644439124317e-02       2.657408725447e+04 
       1.657409515598e-02       2.657468411457e+04 
       1.670384335397e-02       2.657359510150e+04 
       1.683363643558e-02       2.657084351525e+04 
       1.696347502064e-02       2.656645248441e+04 
       1.709335975047e-02       2.656044496114e+04 
       1.722329128818e-02       2.655284371532e+04 
       1.735327031877e-02       2.654367135268e+04 
       1.748329754946e-02       2.653295030119e+04 
       1.761337370988e-02       2.652070281834e+04 
       1.774349955233e-02       2.650695098719e+04 
       1.787367585208e-02       2.649171674048e+04 
       1.800390340767e-02       2.647502183001e+04 
       1.813418304118e-02       2.645688784948e+04 
       1.826451559862e-02       2.643733621217e+04 
       1.839490195023e-02       2.641638819928e+04 
       1.852534299086e-02       2.639406488873e+04 
       1.865583964034e-02       2.637038723730e+04 
       1.878639284388e-02       2.634537602074e+04 
       1.891700357248e-02       2.631905184551e+04 
       1.904767282340e-02       2.629143518630e+04 
       1.917840162052e-02       2.626254634042e+04 
       1.930919101489e-02       2.623240545016e+04 
       1.944004208519e-02       2.620103250250e+04 
       1.957095593820e-02       2.616844733185e+04 
       1.970193370936e-02       2.613466960222e+04 
       1.983297656330e-02       2.609971884686e+04 
       1.996408569436e-02       2.606361442526e+04 
       2.009526232726e-02       2.602637554880e+04 
       2.022650771758e-02       2.598802127283e+04 
       2.035782315248e-02       2.594857049880e+04 
       2.048920995128e-02       2.590804198011e+04 
       2.062066946614e-02       2.586645430394e+04 
       2.075220308275e-02       2.582382592204e+04 
       2.088381222103e-02       2.578017512409e+04 
       2.101549833583e-02       2.573552004599e+04 
       2.114726291775e-02       2.568987867528e+04 
       2.127910749382e-02       2.564326884775e+04 
       2.141103362840e-02       2.559570824152e+04 
       2.154304292392e-02       2.554721438862e+04 
       2.167513702180e-02       2.549780466253e+04 
       2.180731760328e-02       2.544749629455e+04 
       2.193958639035e-02       2.539630636137e+04 
       2.207194514669e-02       2.534425178173e+04 
       2.220439567859e-02       2.529134932658e+04 
       2.233693983602e-02       2.523761561900e+04 
       2.246957951358e-02       2.518306712270e+04 
       2.260231665161e-02       2.512772015787e+04 
       2.273515323724e-02       2.507159088206e+04 
       2.286809130556e-02       2.501469531540e+04 
       2.300113294074e-02       2.495704931520e+04 
       2.313428027722e-02       2.489866858801e+04 
       2.326753550101e-02       2.483956869306e+04 
       2.340090085088e-02       2.477976503096e+04 
       2.353437861971e-02       2.471927285321e+04 
       2.366797115586e-02       2.465810726293e+04 
       2.380168086455e-02       2.459628319659e+04 
       2.393551020928e-02       2.453381545762e+04 
       2.406946171337e-02       2.447071868363e+04 
       2.420353796143e-02       2.440700736441e+04 
       2.433774160102e-02       2.434269583212e+04 
       2.447207534421e-02       2.427779826819e+04 
       2.460654196934e-02       2.421232870367e+04 
       2.474114432270e-02       2.414630101134e+04 
       2.487588532038e-02       2.407972890588e+04 
       2.501076795011e-02       2.401262596497e+04 
       2.514579527319e-02       2.394500559466e+04 
       2.528097042644e-02       2.387688105537e+04 
       2.541629662433e-02       2.380826544745e+04 
       2.555177716103e-02       2.373917173246e+04 
       2.568741541263e-02       2.366961269002e+04 
       2.582321483941e-02       2.359960097048e+04 
       2.595917898819e-02       2.352914905983e+04 
       2.609531149472e-02       2.345826928758e+04 
       2.623161608626e-02       2.338697383007e+04 
       2.636809658410e-02       2.331527470607e+04 
       2.650475690630e-02       2.324318377955e+04 
       2.664160107045e-02       2.317071275459e+04 
       2.677863319655e-02       2.309787319670e+04 
       2.691585751001e-02       2.302467649897e+04 
       2.705327834473e-02       2.295113390283e+04 
       2.719090014631e-02       2.287725649478e+04 
       2.732872747534e-02       2.280305520212e+04 
       2.746676501090e-02       2.272854079559e+04 
       2.760501755408e-02       2.265372389933e+04 
       2.774349003168e-02       2.257861497035e+04 
       2.788218750008e-02       2.250322431278e+04 
       2.802111514922e-02       2.242756207228e+04 
       2.816027830669e-02       2.235163823821e+04 
       2.829968244210e-02       2.227546263806e+04 
       2.843933317146e-02       2.219904495716e+04 
       2.857923626189e-02       2.212239470712e+04 
       2.871939763637e-02       2.204552125316e+04 
       2.885982337876e-02       2.196843379626e+04 
       2.900051973906e-02       2.189114138069e+04 
       2.914149313873e-02       2.181365288754e+04 
       2.928275017638e-02       2.173597705641e+04 
       2.942429763363e-02       2.165812245567e+04 
       2.956614248119e-02       2.158009749815e+04 
       2.970829188521e-02       2.150191043691e+04 
       2.985075321392e-02       2.142356936675e+04 
       2.999353404452e-02       2.134508221863e+04 
       3.013664217035e-02       2.126645678255e+04 
       3.028008560842e-02       2.118770066759e+04 
       3.042387260722e-02       2.110882133809e+04 
       3.056801165485e-02       2.102982608839e+04 
       3.071251148761e-02       2.095072205738e+04 
       3.085738109881e-02       2.087151622523e+04 
       3.100262974817e-02       2.079221541128e+04 
       3.114826697143e-02       2.071282626946e+04 
       3.129430259059e-02       2.063335529600e+04 
       3.144074672449e-02       2.055380881848e+04 
       3.158760979997e-02       2.047419301795e+04 
       3.173490256346e-02       2.039451390130e+04 
       3.188263609319e-02       2.031477731221e+04 
       3.203082181199e-02       2.023498893221e+04 
       3.217947150063e-02       2.015515427430e+04 
       3.232859731188e-02       2.007527870343e+04 
       3.247821178524e-02       1.999536740228e+04 
       3.262832786239e-02       1.991542539184e+04 
       3.277895890342e-02       1.983545752239e+04 
       3.293011870388e-02       1.975546849188e+04 
       3.308182151272e-02       1.967546281763e+04 
       3.323408205111e-02       1.959544484580e+04 
       3.338691553229e-02       1.951541875276e+04 
       3.354033768247e-02       1.943538854683e+04 
       3.369436476277e-02       1.935535807271e+04 
       3.384901359241e-02       1.927533098491e+04 
       3.400430157317e-02       1.919531077077e+04 
       3.416024671513e-02       1.911530073734e+04 
       3.431686766392e-02       1.903530402346e+04 
       3.447418372939e-02       1.895532358140e+04 
       3.463221491606e-02       1.887536216959e+04 
       3.479098195520e-02       1.879542238919e+04 
       3.495050633880e-02       1.871550663721e+04 
       3.511081035558e-02       1.863561713300e+04 
       3.527191712910e-02       1.855575589231e+04 
       3.543385065818e-02       1.847592475189e+04 
       3.559663585976e-02       1.839612535184e+04 
       3.576029861445e-02       1.831635912753e+04 
       3.592486581487e-02       1.823662732526e+04 
       3.609036541706e-02       1.815693097477e+04 
       3.625682649520e-02       1.807727090179e+04 
       3.642427929981e-02       1.799764772876e+04 
       3.659275531984e-02       1.791806184958e+04 
       3.676228734884e-02       1.783851344804e+04 
       3.693290955557e-02       1.775900248497e+04 
       3.710465755947e-02       1.767952868274e+04 
       3.727756851127e-02       1.760009153155e+04 
       3.745168117930e-02       1.752069028494e+04 
       3.762703604190e-02       1.744132395376e+04 
       3.780367538649e-02       1.736199128392e+04 
       3.798164341581e-02       1.728269077036e+04 
       3.816098636212e-02       1.720342062990e+04 
       3.834175260983e-02       1.712417881413e+04 
       3.852399282760e-02       1.704496298771e+04 
       3.870776011055e-02       1.696577051987e+04 
       3.889311013364e-02       1.688659846229e+04 
       3.908010131728e-02       1.680744355725e+04 
       3.926879500629e-02       1.672830223488e+04 
       3.945925566354e-02       1.664917055729e+04 
       3.965155107979e-02       1.657004426054e+04 
       3.984575260121e-02       1.649091867316e+04 
       4.004193537656e-02       1.641178876739e+04 
       4.024017862595e-02       1.633264909014e+04 
       4.044056593353e-02       1.625349377748e+04 
       4.064318556667e-02       1.617431651057e+04 
       4.084813082445e-02       1.609511049793e+04 
       4.105550041893e-02       1.601586846416e+04 
       4.126539889258e-02       1.593658260146e+04 
       4.147793707640e-02       1.585724455082e+04 
       4.169323259320e-02       1.577784536342e+04 
       4.191141041160e-02       1.569837547791e+04 
       4.213260345692e-02       1.561882466633e+04 
       4.235695328593e-02       1.553918198031e+04 
       4.258461083356e-02       1.545943573637e+04 
       4.281573724090e-02       1.537957342683e+04 
       4.305050477513e-02       1.529958167851e+04 
       4.328909785369e-02       1.521944617474e+04 
       4.353171418697e-02       1.513915160182e+04 
       4.377856605618e-02       1.505868155235e+04 
       4.402988174545e-02       1.497801840952e+04 
       4.428590715102e-02       1.489714328956e+04 
       4.454690759355e-02       1.481603589172e+04 
       4.481316986476e-02       1.473467437501e+04 
       4.508500454482e-02       1.465303520226e+04 
       4.536274863375e-02       1.457109296915e+04 
       4.564676854804e-02       1.448882021178e+04 
       4.593746354366e-02       1.440618718487e+04 
       4.623526963837e-02       1.432316158435e+04 
       4.654066412116e-02       1.423970825825e+04 
       4.685417075429e-02       1.415578884893e+04 
       4.717636579594e-02       1.407136138349e+04 
       4.750788499863e-02       1.398637980008e+04 
       4.784943177296e-02       1.390079332579e+04 
       4.820178674900e-02       1.381454587209e+04 
       4.856581902095e-02       1.372757512819e+04 
       4.894249942865e-02       1.363981162131e+04 
       4.933291631430e-02       1.355117748960e+04 
       4.973829430150e-02       1.346158500967e+04 
       5.016001678084e-02       1.337093474353e+04 
       5.059965296190e-02       1.327911325463e+04 
       5.105899057493e-02       1.318599022073e+04 
       5.154007558995e-02       1.309141478479e+04 
       5.204526068212e-02       1.299521079529e+04 
       5.257726462585e-02       1.289717075689e+04 
       5.313924536235e-02       1.279704767275e+04 
       5.373489016296e-02       1.269454451722e+04 
       5.436852708728e-02       1.258929983822e+04 
       5.504526274249e-02       1.248086835973e+04 
       5.577115200089e-02       1.236869442683e+04 
       5.655340540530e-02       1.225207519538e+04 
       5.740063859783e-02       1.213010951704e+04 
       5.832316348309e-02       1.200162659710e+04 
       5.933330966054e-02       1.186508689133e+04 
       6.044574108353e-02       1.171844643354e+04 
       6.167768771529e-02       1.155897746261e+04 
