# dimensionless total [l(l+1)/2pi] C_l's
# for l=2 to 2500, i.e. number of multipoles equal to 2499
#
# -> if you prefer output in CAMB/HealPix/LensPix units/order, set 'format' to 'camb' in input file
# -> if you don't want to see such a header, set 'headers' to 'no' in input file
# -> for CMB lensing (phi), these are C_l^phi-phi for the lensing potential.
#    Remember the conversion factors:
#    C_l^dd (deflection) = l(l+1) C_l^phi-phi
#    C_l^gg (shear/convergence) = 1/4 (l(l+1))^2 C_l^phi-phi
#
# 1:l     2:TT                     3:EE                     4:TE                     5:BB                     6:phiphi                 7:TPhi                   8:Ephi               
    2       1.512238110426e-10       1.038937471556e-14       6.131507105398e-13       0.000000000000e+00       8.777677076806e-09       4.894037786322e-10      -2.865402149953e-12 
    3       1.422946668664e-10       2.156510063665e-14       8.802809547977e-13       0.000000000000e+00       5.389440875778e-09       3.495949344096e-10      -2.692216659896e-12 
    4       1.328904774496e-10       3.244580832111e-14       1.046871724927e-12       0.000000000000e+00       3.742843736796e-09       2.669445783847e-10      -2.351352326290e-12 
    5       1.247422747921e-10       4.148399020971e-14       1.141799467956e-12       0.000000000000e+00       2.791925450234e-09       2.127157277506e-10      -1.992127079790e-12 
    6       1.179443981641e-10       4.820828037075e-14       1.188002803890e-12       0.000000000000e+00       2.179787918735e-09       1.745891702431e-10      -1.658292142364e-12 
    7       1.122785990328e-10       5.284160669981e-14       1.202731598824e-12       0.000000000000e+00       1.757851720309e-09       1.464494365339e-10      -1.368303671207e-12 
    8       1.075504171427e-10       5.586993126416e-14       1.197114237968e-12       0.000000000000e+00       1.452253993840e-09       1.249303371347e-10      -1.127232883607e-12 
    9       1.035767534678e-10       5.779721575562e-14       1.178520527015e-12       0.000000000000e+00       1.222354553084e-09       1.080445963449e-10      -9.328299330609e-13 
   10       1.002136369746e-10       5.903700506538e-14       1.152036568866e-12       0.000000000000e+00       1.044234453888e-09       9.452002482530e-11      -7.788104719903e-13 
   11       9.737611126215e-11       5.988897955729e-14       1.120876047194e-12       0.000000000000e+00       8.803395298098e-10       8.354769903712e-11      -6.632050783725e-13 
   12       9.495141468235e-11       6.055302439583e-14       1.087096648689e-12       0.000000000000e+00       7.689422045568e-10       7.416796503860e-11      -5.698945833256e-13 
   13       9.287806247583e-11       6.115387175860e-14       1.052184093317e-12       0.000000000000e+00       6.775207011735e-10       6.649062449678e-11      -4.900029729377e-13 
   14       9.110231968890e-11       6.176460347267e-14       1.017049671282e-12       0.000000000000e+00       6.014797885283e-10       5.979374564911e-11      -4.271587013671e-13 
   15       8.959063998079e-11       6.242446123640e-14       9.820411615410e-13       0.000000000000e+00       5.374900176077e-10       5.414379780845e-11      -3.721343469851e-13 
   16       8.829409420428e-11       6.315105715604e-14       9.470826012520e-13       0.000000000000e+00       4.830981814612e-10       4.928516642378e-11      -3.244785004752e-13 
   17       8.718984090185e-11       6.394878845231e-14       9.120869963882e-13       0.000000000000e+00       4.364512325315e-10       4.505424251225e-11      -2.840791228285e-13 
   18       8.623863249802e-11       6.481011612220e-14       8.770402870266e-13       0.000000000000e+00       3.959745636148e-10       4.134237013385e-11      -2.507278956475e-13 
   19       8.544841291137e-11       6.573954648705e-14       8.421322527049e-13       0.000000000000e+00       3.610230137171e-10       3.809850933129e-11      -2.241711814850e-13 
   20       8.478298191944e-11       6.671504142897e-14       8.069072094639e-13       0.000000000000e+00       3.302467834694e-10       3.520829158041e-11      -2.030891537530e-13 
   21       8.424092646810e-11       6.773553434452e-14       7.715847586620e-13       0.000000000000e+00       3.031607513035e-10       3.262976691121e-11      -1.863859692842e-13 
   22       8.379839322734e-11       6.878912260496e-14       7.362055552483e-13       0.000000000000e+00       2.791153279976e-10       3.030500235807e-11      -1.725551036347e-13 
   23       8.345434074320e-11       6.987275567661e-14       7.009036307947e-13       0.000000000000e+00       2.577788320854e-10       2.821594369710e-11      -1.606370954689e-13 
   24       8.319288600148e-11       7.097437719470e-14       6.655812181929e-13       0.000000000000e+00       2.386569247288e-10       2.633217604120e-11      -1.496104135742e-13 
   25       8.301458852080e-11       7.209084634709e-14       6.304010440570e-13       0.000000000000e+00       2.215238416806e-10       2.463663338731e-11      -1.388753715880e-13 
   26       8.290847084491e-11       7.321351072816e-14       5.953797940633e-13       0.000000000000e+00       2.060686037040e-10       2.309949606990e-11      -1.279365732189e-13 
   27       8.286699667970e-11       7.433882514623e-14       5.604379941491e-13       0.000000000000e+00       1.921051394116e-10       2.170173306357e-11      -1.169047248695e-13 
   28       8.287466497207e-11       7.545969141231e-14       5.253439471210e-13       0.000000000000e+00       1.793920418621e-10       2.041869880087e-11      -1.060917419474e-13 
   29       8.293761570565e-11       7.657687941256e-14       4.901794519788e-13       0.000000000000e+00       1.678640053026e-10       1.924619324849e-11      -9.589563537972e-14 
   30       8.305721430673e-11       7.768700113411e-14       4.549666147758e-13       0.000000000000e+00       1.573968569807e-10       1.817552135225e-11      -8.676061851107e-14 
   31       8.322441636490e-11       7.878125662208e-14       4.195914307919e-13       0.000000000000e+00       1.477765941776e-10       1.718855280947e-11      -7.906414842663e-14 
   32       8.344081850773e-11       7.985993202409e-14       3.841109037446e-13       0.000000000000e+00       1.389532522457e-10       1.627867986017e-11      -7.277917409730e-14 
   33       8.370301041045e-11       8.092196723390e-14       3.485285981931e-13       0.000000000000e+00       1.308641585010e-10       1.543579636807e-11      -6.766858227343e-14 
   34       8.400096130331e-11       8.196289576418e-14       3.127700244532e-13       0.000000000000e+00       1.233957727636e-10       1.464539526832e-11      -6.340570076810e-14 
   35       8.433588877974e-11       8.298314923531e-14       2.769316900730e-13       0.000000000000e+00       1.165096695994e-10       1.390765362285e-11      -5.973241845673e-14 
   36       8.470708321123e-11       8.398178034619e-14       2.410998182771e-13       0.000000000000e+00       1.101504033362e-10       1.322406994629e-11      -5.634162540659e-14 
   37       8.510974251797e-11       8.495575921686e-14       2.053037791275e-13       0.000000000000e+00       1.042349726168e-10       1.259285554894e-11      -5.291964319106e-14 
   38       8.554638178369e-11       8.590662321947e-14       1.696141252643e-13       0.000000000000e+00       9.874797750414e-11       1.201181531655e-11      -4.946053904371e-14 
   39       8.601818007747e-11       8.683543817249e-14       1.340634907920e-13       0.000000000000e+00       9.367190807410e-11       1.147578411053e-11      -4.605154920017e-14 
   40       8.652128855167e-11       8.774064998769e-14       9.861129387980e-14       0.000000000000e+00       8.895820291609e-11       1.097540949456e-11      -4.278929027833e-14 
   41       8.704942999224e-11       8.861948358974e-14       6.318217218779e-14       0.000000000000e+00       8.454414224321e-11       1.050014757460e-11      -3.975853423548e-14 
   42       8.760391305070e-11       8.947337925565e-14       2.781334958881e-14       0.000000000000e+00       8.041665045720e-11       1.004926046143e-11      -3.695955854789e-14 
   43       8.818603930946e-11       9.030384155365e-14      -7.456669236721e-15       0.000000000000e+00       7.656470585369e-11       9.623812795527e-12      -3.435761149629e-14 
   44       8.879400671377e-11       9.111073662993e-14      -4.263334674431e-14       0.000000000000e+00       7.296019687731e-11       9.223520567888e-12      -3.190119274644e-14 
   45       8.942454781822e-11       9.189319550844e-14      -7.773966312035e-14       0.000000000000e+00       6.956794638605e-11       8.847177269246e-12      -2.953798532030e-14 
   46       9.007910150086e-11       9.265305148713e-14      -1.127180310517e-13       0.000000000000e+00       6.638256313932e-11       8.494362977242e-12      -2.727116610201e-14 
   47       9.075900059477e-11       9.339213770329e-14      -1.475057760492e-13       0.000000000000e+00       6.340029393814e-11       8.164045029167e-12      -2.511788369177e-14 
   48       9.146353802973e-11       9.411119371497e-14      -1.820651318418e-13       0.000000000000e+00       6.060790962186e-11       7.853993291882e-12      -2.309337447638e-14 
   49       9.218979206361e-11       9.480975537006e-14      -2.163854394253e-13       0.000000000000e+00       5.798200064379e-11       7.560693241130e-12      -2.121074649877e-14 
   50       9.293413167701e-11       9.548691706492e-14      -2.504724758031e-13       0.000000000000e+00       5.549601798234e-11       7.280375778266e-12      -1.947957609011e-14 
   51       9.369761994682e-11       9.614411794661e-14      -2.843079236135e-13       0.000000000000e+00       5.314528323020e-11       7.012637877842e-12      -1.790175011107e-14 
   52       9.448177525901e-11       9.678292162574e-14      -3.178827011812e-13       0.000000000000e+00       5.092754957052e-11       6.757654476133e-12      -1.647412153921e-14 
   53       9.528692590278e-11       9.740414244808e-14      -3.512104268703e-13       0.000000000000e+00       4.883551790615e-11       6.515114076746e-12      -1.518933252043e-14 
   54       9.611211436849e-11       9.800777641734e-14      -3.843290124709e-13       0.000000000000e+00       4.685649692165e-11       6.284184382270e-12      -1.403554236857e-14 
   55       9.695587560397e-11       9.859355896736e-14      -4.172795560421e-13       0.000000000000e+00       4.497626899247e-11       6.063843979710e-12      -1.299727744246e-14 
   56       9.781901743049e-11       9.916295878979e-14      -4.500332298699e-13       0.000000000000e+00       4.319259130742e-11       5.854052621837e-12      -1.205885114272e-14 
   57       9.870236321195e-11       9.971755832173e-14      -4.825490208510e-13       0.000000000000e+00       4.150445328689e-11       5.654811469992e-12      -1.120131708545e-14 
   58       9.960587810263e-11       1.002584266095e-13      -5.147955332602e-13       0.000000000000e+00       3.990799234853e-11       5.465802842812e-12      -1.040119833932e-14 
   59       1.005286073954e-10       1.007860746540e-13      -5.467516977008e-13       0.000000000000e+00       3.839631783355e-11       5.286370109715e-12      -9.630259134624e-15 
   60       1.014686148697e-10       1.013004107564e-13      -5.784074800548e-13       0.000000000000e+00       3.695933493291e-11       5.115497584395e-12      -8.855276572353e-15 
   61       1.024238213517e-10       1.018011807111e-13      -6.097579162343e-13       0.000000000000e+00       3.558654447048e-11       4.952102848180e-12      -8.046430396928e-15 
   62       1.033948798182e-10       1.022895048678e-13      -6.407820479267e-13       0.000000000000e+00       3.427657495250e-11       4.796035881940e-12      -7.205189372030e-15 
   63       1.043828391753e-10       1.027666084100e-13      -6.714604952787e-13       0.000000000000e+00       3.302948738007e-11       4.647269541335e-12      -6.342307681215e-15 
   64       1.053882685601e-10       1.032333382594e-13      -7.017822012136e-13       0.000000000000e+00       3.184390815723e-11       4.505596925146e-12      -5.469803464625e-15 
   65       1.064112242514e-10       1.036901338060e-13      -7.317449286144e-13       0.000000000000e+00       3.071694743894e-11       4.370621181936e-12      -4.601003972700e-15 
   66       1.074512165819e-10       1.041369976372e-13      -7.613557575068e-13       0.000000000000e+00       2.964411747891e-11       4.241745316699e-12      -3.750590719877e-15 
   67       1.085071768484e-10       1.045734662668e-13      -7.906315822416e-13       0.000000000000e+00       2.861925097764e-11       4.118161997521e-12      -2.934644638291e-15 
   68       1.095779618315e-10       1.049990107705e-13      -8.195895011622e-13       0.000000000000e+00       2.763614636439e-11       3.999068590213e-12      -2.167461401153e-15 
   69       1.106640600263e-10       1.054143983872e-13      -8.482146129997e-13       0.000000000000e+00       2.669407328500e-11       3.884385643729e-12      -1.451147125370e-15 
   70       1.117661732851e-10       1.058205554981e-13      -8.764865583588e-13       0.000000000000e+00       2.579324111314e-11       3.774166345952e-12      -7.839859141539e-16 
   71       1.128846908070e-10       1.062181441843e-13      -9.043892842782e-13       0.000000000000e+00       2.493313390720e-11       3.668379823361e-12      -1.634463768970e-16 
   72       1.140196697985e-10       1.066075439511e-13      -9.319112829090e-13       0.000000000000e+00       2.411247292532e-11       3.566906707994e-12       4.138558214807e-16 
   73       1.151708161343e-10       1.069888334518e-13      -9.590458301935e-13       0.000000000000e+00       2.332917914048e-11       3.469534704407e-12       9.521954111842e-16 
   74       1.163374650179e-10       1.073617722127e-13      -9.857912245437e-13       0.000000000000e+00       2.258033575547e-11       3.375954156638e-12       1.456774968196e-15 
   75       1.175185616426e-10       1.077257823570e-13      -1.012151025520e-12       0.000000000000e+00       2.186215071800e-11       3.285753615169e-12       1.933762364931e-15 
   76       1.187130616475e-10       1.080802443493e-13      -1.038129096460e-12       0.000000000000e+00       2.117089711394e-11       3.198528490604e-12       2.388781621203e-15 
   77       1.199212595411e-10       1.084254868911e-13      -1.063713161101e-12       0.000000000000e+00       2.050601518627e-11       3.114239688531e-12       2.821984955891e-15 
   78       1.211436685124e-10       1.087619451728e-13      -1.088888668127e-12       0.000000000000e+00       1.986751050978e-11       3.032912623363e-12       3.232145965338e-15 
   79       1.223806115682e-10       1.090898512228e-13      -1.113643851201e-12       0.000000000000e+00       1.925500914467e-11       2.954527853505e-12       3.618132145139e-15 
   80       1.236322108025e-10       1.094092220707e-13      -1.137969861094e-12       0.000000000000e+00       1.866774020378e-11       2.879018967247e-12       3.978910626514e-15 
   81       1.248983766655e-10       1.097198479112e-13      -1.161860897812e-12       0.000000000000e+00       1.810451841984e-11       2.806270468663e-12       4.313553912679e-15 
   82       1.261787972324e-10       1.100212802672e-13      -1.185314342730e-12       0.000000000000e+00       1.756372671268e-11       2.736115663506e-12       4.621245615226e-15 
   83       1.274729274726e-10       1.103128201537e-13      -1.208330890718e-12       0.000000000000e+00       1.704329875645e-11       2.668334545105e-12       4.901286190490e-15 
   84       1.287802028264e-10       1.105937393987e-13      -1.230910477122e-12       0.000000000000e+00       1.654122068501e-11       2.602710638485e-12       5.153462722629e-15 
   85       1.301007441240e-10       1.108640126886e-13      -1.253038993473e-12       0.000000000000e+00       1.605716995702e-11       2.539216991080e-12       5.379216142312e-15 
   86       1.314347503956e-10       1.111236857433e-13      -1.274699601534e-12       0.000000000000e+00       1.559111748107e-11       2.477857282595e-12       5.580678925202e-15 
   87       1.327822780955e-10       1.113726451476e-13      -1.295876803197e-12       0.000000000000e+00       1.514282405437e-11       2.418608501564e-12       5.760339929689e-15 
   88       1.341432341409e-10       1.116106104333e-13      -1.316556501937e-12       0.000000000000e+00       1.471183165495e-11       2.361419822138e-12       5.921056251700e-15 
   89       1.355173689506e-10       1.118371261616e-13      -1.336726064265e-12       0.000000000000e+00       1.429745473394e-11       2.306211480880e-12       6.066065079505e-15 
   90       1.369042694842e-10       1.120515540050e-13      -1.356374381181e-12       0.000000000000e+00       1.389877150780e-11       2.252873653554e-12       6.198995548522e-15 
   91       1.383033522809e-10       1.122530648299e-13      -1.375491929633e-12       0.000000000000e+00       1.351461525052e-11       2.201265331915e-12       6.323880596120e-15 
   92       1.397138564980e-10       1.124406307780e-13      -1.394070833971e-12       0.000000000000e+00       1.314356558590e-11       2.151213200501e-12       6.445168816428e-15 
   93       1.411350588569e-10       1.126132780970e-13      -1.412103094757e-12       0.000000000000e+00       1.278428524755e-11       2.102554657109e-12       6.566766827840e-15 
   94       1.425669705782e-10       1.127709063254e-13      -1.429574837020e-12       0.000000000000e+00       1.243660720970e-11       2.055276715249e-12       6.688975872405e-15 
   95       1.440097328830e-10       1.129135782469e-13      -1.446471306534e-12       0.000000000000e+00       1.210059572200e-11       2.009396013138e-12       6.811114255284e-15 
   96       1.454634005630e-10       1.130412658401e-13      -1.462778661198e-12       0.000000000000e+00       1.177621149778e-11       1.964916021108e-12       6.932444345891e-15 
   97       1.469279380659e-10       1.131538459396e-13      -1.478484007333e-12       0.000000000000e+00       1.146330774857e-11       1.921826524356e-12       7.052171124699e-15 
   98       1.484032155798e-10       1.132510958977e-13      -1.493575435977e-12       0.000000000000e+00       1.116162621844e-11       1.880103105682e-12       7.169440730054e-15 
   99       1.498890051191e-10       1.133326892460e-13      -1.508042059184e-12       0.000000000000e+00       1.087079321842e-11       1.839706628240e-12       7.283339004990e-15 
  100       1.513849766083e-10       1.133981913561e-13      -1.521874046326e-12       0.000000000000e+00       1.059031566097e-11       1.800582718276e-12       7.392890044040e-15 
  101       1.528906939679e-10       1.134470551017e-13      -1.535062660389e-12       0.000000000000e+00       1.031957709435e-11       1.762661247876e-12       7.497054740048e-15 
  102       1.544056111990e-10       1.134786165197e-13      -1.547600294269e-12       0.000000000000e+00       1.005783373704e-11       1.725855817708e-12       7.594729330981e-15 
  103       1.559290684680e-10       1.134920904715e-13      -1.559480507075e-12       0.000000000000e+00       9.804210512157e-12       1.690063239766e-12       7.684743946743e-15 
  104       1.574604373266e-10       1.134867569435e-13      -1.570696046881e-12       0.000000000000e+00       9.557899324664e-12       1.655188008739e-12       7.766129383006e-15 
  105       1.589995871437e-10       1.134625579538e-13      -1.581232536621e-12       0.000000000000e+00       9.318792938365e-12       1.621220595022e-12       7.838961594777e-15 
  106       1.605464746756e-10       1.134195735654e-13      -1.591073998952e-12       0.000000000000e+00       9.086929732081e-12       1.588168812875e-12       7.903629103517e-15 
  107       1.621009983102e-10       1.133578362321e-13      -1.600204807627e-12       0.000000000000e+00       8.862297381181e-12       1.556033536510e-12       7.960576433526e-15 
