# dimensionless total lensed [l(l+1)/2pi] C_l's
# for l=2 to 2600, i.e. number of multipoles equal to 2599
#
# -> if you prefer output in CAMB/HealPix/LensPix units/order, set 'format' to 'camb' in input file
# -> if you don't want to see such a header, set 'headers' to 'no' in input file
# -> for CMB lensing (phi), these are C_l^phi-phi for the lensing potential.
#    Remember the conversion factors:
#    C_l^dd (deflection) = l(l+1) C_l^phi-phi
#    C_l^gg (shear/convergence) = 1/4 (l(l+1))^2 C_l^phi-phi
#
# 1:l     2:TT                     3:EE                     4:TE                     5:BB                     6:phiphi                 7:TPhi                   8:Ephi               
    2       1.576199015731e-10       4.460192037037e-15       3.972311672782e-13       2.556814242147e-19       9.130101975561e-09       5.458522734311e-10      -1.919325193865e-12 
    3       1.457263453190e-10       5.744879679368e-15       4.435933540786e-13       5.114132995217e-19       5.611520313734e-09       3.826909223040e-10      -1.437686054341e-12 
    4       1.358020855168e-10       4.991004230106e-15       4.110192543171e-13       8.524689997085e-19       3.897333758962e-09       2.873268634224e-10      -9.301617802403e-13 
    5       1.286887209575e-10       3.343223812472e-15       3.461396118920e-13       1.278919540082e-18       2.906424858080e-09       2.254341661802e-10      -5.112058775218e-13 
    6       1.238435482206e-10       1.872918190245e-15       2.750130641061e-13       1.790856637722e-18       2.268348741450e-09       1.824331225153e-10      -2.073054190041e-13 
    7       1.206880268097e-10       1.006259508964e-15       2.126781088711e-13       2.388394302813e-18       1.828533068217e-09       1.510673087176e-10      -1.520541763757e-14 
    8       1.186886214615e-10       6.409222913225e-16       1.657225151393e-13       3.071670400370e-18       1.510015422904e-09       1.273428044563e-10       8.238891217302e-14 
    9       1.175937260505e-10       5.114393752446e-16       1.350306955538e-13       3.840848024315e-18       1.270383335613e-09       1.089301588618e-10       1.092736125872e-13 
   10       1.171734525507e-10       4.378994621474e-16       1.183999130724e-13       4.696116523746e-18       1.084683059550e-09       9.435418636498e-11       9.117669362636e-14 
   11       1.172070510914e-10       3.714157644460e-16       1.126143851633e-13       5.637692028139e-18       9.136255342069e-10       8.274772347386e-11       5.224152049076e-14 
   12       1.176609840059e-10       3.264917849398e-16       1.142528816164e-13       6.665817333891e-18       7.975446976679e-10       7.303843216172e-11       1.068630142127e-14 
   13       1.183987810178e-10       3.147694261375e-16       1.201992597431e-13       7.780761038606e-18       7.022961352160e-10       6.485434206656e-11      -2.149996385695e-14 
   14       1.193494114442e-10       3.280732301161e-16       1.281747790079e-13       8.982815840715e-18       6.230880822769e-10       5.792739071207e-11      -3.911630715132e-14 
   15       1.205189965501e-10       3.538310655270e-16       1.367958765028e-13       1.027229595920e-17       5.564369922642e-10       5.209824494498e-11      -4.247633990491e-14 
   16       1.218402919870e-10       3.891916928616e-16       1.454310393886e-13       1.164953366958e-17       4.998096409341e-10       4.708938295590e-11      -3.560633719412e-14 
   17       1.233065305279e-10       4.401897121259e-16       1.539572142840e-13       1.311487499607e-17       4.512710511833e-10       4.270142250616e-11      -2.405923053459e-14 
   18       1.248828526077e-10       5.133944572476e-16       1.626195250611e-13       1.466867513190e-17       4.091639964203e-10       3.886085944563e-11      -1.282162912871e-14 
   19       1.265701405676e-10       6.095600556624e-16       1.717248129811e-13       1.631129029824e-17       3.728146876769e-10       3.552189589995e-11      -4.639794603099e-15 
   20       1.283273546038e-10       7.267325783683e-16       1.815355421344e-13       1.804307678522e-17       3.408218007026e-10       3.255657383403e-11      -1.434467514229e-15 
   21       1.301625500232e-10       8.639814422695e-16       1.919725234640e-13       1.986437797115e-17       3.126806456245e-10       2.994490373292e-11      -2.718075910937e-15 
   22       1.320667259023e-10       1.020382115335e-15       2.027656894880e-13       2.177552394884e-17       2.877140261773e-10       2.765573168296e-11      -6.753172472915e-15 
   23       1.340418541598e-10       1.196093364796e-15       2.135988628181e-13       2.377681961144e-17       2.655712203880e-10       2.564114982307e-11      -1.170977488629e-14 
   24       1.360702164378e-10       1.391380363553e-15       2.240786213877e-13       2.586854418198e-17       2.457318523134e-10       2.382012854455e-11      -1.561235684531e-14 
   25       1.381481791789e-10       1.606127670768e-15       2.338230121556e-13       2.805094139528e-17       2.279619337010e-10       2.215361640545e-11      -1.763665122986e-14 
   26       1.402627399740e-10       1.840378588471e-15       2.424702393449e-13       3.032421860443e-17       2.119412840789e-10       2.060708097013e-11      -1.746810143137e-14 
   27       1.424235246797e-10       2.096333967830e-15       2.499488386289e-13       3.268854056360e-17       1.974760001950e-10       1.919930608208e-11      -1.560274488059e-14 
   28       1.446355893393e-10       2.376852279673e-15       2.563010070013e-13       3.514402909078e-17       1.843137152735e-10       1.795202056041e-11      -1.290084501206e-14 
   29       1.469024566971e-10       2.683516418066e-15       2.615803290715e-13       3.769076675173e-17       1.723854229376e-10       1.685068437980e-11      -1.006350535559e-14 
   30       1.492123296894e-10       3.017506408655e-15       2.658757370494e-13       4.032878838989e-17       1.615612060378e-10       1.585300722660e-11      -7.882038670965e-15 
   31       1.515426112502e-10       3.379937318358e-15       2.692868034483e-13       4.305808349770e-17       1.516179695671e-10       1.490875087938e-11      -7.098978325485e-15 
   32       1.538988836651e-10       3.771779703176e-15       2.717978294868e-13       4.587862137763e-17       1.425030304145e-10       1.401966545630e-11      -7.538309187575e-15 
   33       1.562878475721e-10       4.193895416136e-15       2.733570353287e-13       4.879032986004e-17       1.341506465467e-10       1.320055671327e-11      -8.635909647882e-15 
   34       1.587083005261e-10       4.647086450609e-15       2.738911553433e-13       5.179309823765e-17       1.264424649357e-10       1.246046013384e-11      -9.765106251469e-15 
   35       1.611593470860e-10       5.132223740959e-15       2.732453458229e-13       5.488682080466e-17       1.193384767550e-10       1.179256471178e-11      -1.063564073003e-14 
   36       1.636331644973e-10       5.650153402968e-15       2.712190616378e-13       5.807136494580e-17       1.127813059847e-10       1.117966776414e-11      -1.102527070270e-14 
   37       1.661185204690e-10       6.201682118826e-15       2.676234666270e-13       6.134657904288e-17       1.066850732151e-10       1.060221071491e-11      -1.075201268848e-14 
   38       1.686238742338e-10       6.787660352970e-15       2.624320510609e-13       6.471236513634e-17       1.010335529709e-10       1.005920022478e-11      -9.947816075391e-15 
   39       1.711607626799e-10       7.408920550446e-15       2.556800040085e-13       6.816862921468e-17       9.580825589703e-11       9.553564971217e-12      -8.878671605958e-15 
   40       1.737370074850e-10       8.066251196268e-15       2.474257154541e-13       7.171526176501e-17       9.095856838317e-11       9.086307044362e-12      -7.876880895784e-15 
   41       1.763559567077e-10       8.760389321023e-15       2.377291928584e-13       7.535216135068e-17       8.641925817080e-11       8.656460643467e-12      -7.259171998804e-15 
   42       1.790150593946e-10       9.492001994035e-15       2.265754397085e-13       7.907931453534e-17       8.217657135854e-11       8.261417959838e-12      -7.038638570027e-15 
   43       1.817060240307e-10       1.026169396707e-14       2.139285292883e-13       8.289674200472e-17       7.821894254280e-11       7.896383125578e-12      -7.126272847103e-15 
   44       1.844145725203e-10       1.107000863993e-14       1.997523026278e-13       8.680447885760e-17       7.451717146298e-11       7.554048829383e-12      -7.407470376140e-15 
   45       1.871260814193e-10       1.191744341555e-14       1.840079720904e-13       9.080258446937e-17       7.103477936289e-11       7.226731977821e-12      -7.763714541794e-15 
   46       1.898456863764e-10       1.280450878176e-14       1.666464615297e-13       9.489117171057e-17       6.776607410785e-11       6.913973959466e-12      -8.149198457314e-15 
   47       1.925833438419e-10       1.373168144810e-14       1.476134991459e-13       9.907038927051e-17       6.470708010095e-11       6.616900790457e-12      -8.534339805675e-15 
   48       1.953480761435e-10       1.469938524673e-14       1.268513683440e-13       1.033404162702e-16       6.184406178159e-11       6.336052991491e-12      -8.884177974891e-15 
   49       1.981478286204e-10       1.570798900031e-14       1.042986162611e-13       1.077014643858e-16       5.915279875778e-11       6.071335856242e-12      -9.158088150881e-15 
   50       2.009883030046e-10       1.675778365540e-14       7.989937983198e-14       1.121537612365e-16       5.660584188344e-11       5.822203933083e-12      -9.323181209593e-15 
   51       2.038694156982e-10       1.784891131146e-14       5.363502454402e-14       1.166974903089e-16       5.419828512843e-11       5.588388881671e-12      -9.399454663399e-15 
   52       2.067876311821e-10       1.898141324212e-14       2.550058983598e-14       1.213328383961e-16       5.192773621297e-11       5.369283220719e-12      -9.426403220707e-15 
   53       2.097367152349e-10       2.015524591200e-14      -4.503920550164e-15       1.260600141190e-16       4.978660606561e-11       5.163685590887e-12      -9.450753779235e-15 
   54       2.127075438893e-10       2.137027786887e-14      -3.637337745206e-14       1.308792491680e-16       4.776175952931e-11       4.969762045007e-12      -9.526823556495e-15 
   55       2.156912684096e-10       2.262635543769e-14      -7.010231238617e-14       1.357907553865e-16       4.583849816004e-11       4.785555888541e-12      -9.701860945278e-15 
   56       2.186901686055e-10       2.392352603356e-14      -1.057010372696e-13       1.407945806916e-16       4.401446745544e-11       4.610754198770e-12      -9.966983157353e-15 
   57       2.217091610877e-10       2.526186488091e-14      -1.431832469741e-13       1.458907195358e-16       4.228859266462e-11       4.445292343680e-12      -1.029467773085e-14 
   58       2.247526204959e-10       2.664141065415e-14      -1.825614539014e-13       1.510791534604e-16       4.065687280688e-11       4.288826919992e-12      -1.065252993606e-14 
   59       2.278243192102e-10       2.806216505041e-14      -2.238470196146e-13       1.563598506169e-16       3.911220016062e-11       4.140718415468e-12      -1.100299581731e-14 
   60       2.309273670621e-10       2.952409236236e-14      -2.670501864703e-13       1.617327652876e-16       3.764417975229e-11       4.000013871221e-12      -1.130317523474e-14 
   61       2.340641534609e-10       3.102702074610e-14      -3.121767910945e-13       1.671978119108e-16       3.624200411818e-11       3.865715620162e-12      -1.151428727555e-14 
   62       2.372362949832e-10       3.257032109460e-14      -3.592174712132e-13       1.727547814234e-16       3.490423999478e-11       3.737697214082e-12      -1.163309528746e-14 
   63       2.404445689825e-10       3.415315499781e-14      -4.081560812848e-13       1.784034052052e-16       3.363092803337e-11       3.615963255827e-12      -1.166716489120e-14 
   64       2.436888511160e-10       3.577456321087e-14      -4.589727246842e-13       1.841433776557e-16       3.242063945624e-11       3.500373367695e-12      -1.162586333036e-14 
   65       2.469680551331e-10       3.743346210773e-14      -5.116436800520e-13       1.899743549066e-16       3.127039248726e-11       3.390633930722e-12      -1.152044036209e-14 
   66       2.502800726629e-10       3.912864013478e-14      -5.661413276437e-13       1.958959535336e-16       3.017556878222e-11       3.286289823970e-12      -1.136410914778e-14 
   67       2.536217130021e-10       4.085875426450e-14      -6.224340756783e-13       2.019077492686e-16       2.912982985935e-11       3.186716163817e-12      -1.117212714370e-14 
   68       2.569898999392e-10       4.262247251303e-14      -6.804898524692e-13       2.080093375207e-16       2.812680407127e-11       3.091279187700e-12      -1.095937425380e-14 
   69       2.603856784257e-10       4.441894295370e-14      -7.402875691234e-13       2.142005320578e-16       2.716573125789e-11       2.999875225454e-12      -1.073233662688e-14 
   70       2.638109153239e-10       4.624741380377e-14      -8.018078578489e-13       2.204812044542e-16       2.624681697596e-11       2.912486599631e-12      -1.049563641815e-14 
   71       2.672670866447e-10       4.810709595500e-14      -8.650297289106e-13       2.268512261319e-16       2.536952555583e-11       2.829018279665e-12      -1.025440738983e-14 
   72       2.707552494834e-10       4.999716316295e-14      -9.299305881759e-13       2.333104686529e-16       2.453254181422e-11       2.749293947097e-12      -1.001431179316e-14 
   73       2.742760139580e-10       5.191675223620e-14      -9.964862546603e-13       2.398588040128e-16       2.373373276715e-11       2.673052060815e-12      -9.781557250412e-15 
   74       2.778295151457e-10       5.386496322571e-14      -1.064670978073e-12       2.464961049328e-16       2.297010934270e-11       2.599941922284e-12      -9.562913636997e-15 
   75       2.814153850199e-10       5.584085961406e-14      -1.134457456361e-12       2.532222451533e-16       2.223778809391e-11       2.529519740782e-12      -9.365729963450e-15 
   76       2.850331772895e-10       5.784339882161e-14      -1.205815430178e-12       2.600371784157e-16       2.153295300436e-11       2.461361200628e-12      -9.196221246364e-15 
   77       2.886837933886e-10       5.987120867629e-14      -1.278707131596e-12       2.669411913890e-16       2.085502802522e-11       2.395431559144e-12      -9.053931144183e-15 
   78       2.923682667461e-10       6.192277033652e-14      -1.353091033463e-12       2.739346976123e-16       2.020401619345e-11       2.331776202722e-12      -8.936285536220e-15 
   79       2.960873144811e-10       6.399648313863e-14      -1.428923187409e-12       2.810181647722e-16       1.957953337068e-11       2.270408611262e-12      -8.840214661094e-15 
   80       2.998413186271e-10       6.609066335720e-14      -1.506157212206e-12       2.881921166101e-16       1.898079046371e-11       2.211308812376e-12      -8.762134523488e-15 
   81       3.036303073561e-10       6.820354296547e-14      -1.584744282137e-12       2.954571348280e-16       1.840657564510e-11       2.154421835591e-12      -8.697928300912e-15 
   82       3.074539362030e-10       7.033326839571e-14      -1.664633115355e-12       3.028138609955e-16       1.785523657374e-11       2.099656166544e-12      -8.642927750461e-15 
   83       3.113114692899e-10       7.247789929957e-14      -1.745769962252e-12       3.102629984557e-16       1.732466261538e-11       2.046882201190e-12      -8.591894615578e-15 
   84       3.152021326280e-10       7.463548435408e-14      -1.828099863913e-12       3.178052509413e-16       1.681279709767e-11       1.995966800097e-12      -8.540040535010e-15 
   85       3.191262824468e-10       7.680430583415e-14      -1.911570692685e-12       3.254411225524e-16       1.631931059331e-11       1.946886919143e-12      -8.486321766114e-15 
   86       3.230843970256e-10       7.898267350070e-14      -1.996129763231e-12       3.331710879604e-16       1.584417372381e-11       1.899632069822e-12      -8.430659106630e-15 
   87       3.270767094984e-10       8.116885121447e-14      -2.081722631557e-12       3.409956535810e-16       1.538714304802e-11       1.854168968791e-12      -8.372946832864e-15 
   88       3.311031953315e-10       8.336105699123e-14      -2.168293104729e-12       3.489153584168e-16       1.494775219086e-11       1.810440598791e-12      -8.313051560263e-15 
   89       3.351635598012e-10       8.555746305706e-14      -2.255783250574e-12       3.569307749000e-16       1.452530297198e-11       1.768365269580e-12      -8.250811103992e-15 
   90       3.392572254716e-10       8.775619590361e-14      -2.344133407399e-12       3.650425097355e-16       1.411885653446e-11       1.727835678852e-12      -8.186033339519e-15 
   91       3.433833196722e-10       8.995533634334e-14      -2.433282193695e-12       3.732512047435e-16       1.372722447355e-11       1.688717973167e-12      -8.118495063187e-15 
   92       3.475406619754e-10       9.215291956482e-14      -2.523166517849e-12       3.815575377018e-16       1.334895996532e-11       1.650850808873e-12      -8.047940852798e-15 
   93       3.517281280708e-10       9.434696258685e-14      -2.613722181771e-12       3.899621334996e-16       1.298270082510e-11       1.614083484641e-12      -7.974214258440e-15 
   94       3.559458311894e-10       9.653555122420e-14      -2.704885774515e-12       3.984652804791e-16       1.262827697242e-11       1.578398939189e-12      -7.897676420312e-15 
   95       3.601940960397e-10       9.871676636462e-14      -2.796593082737e-12       4.070671727913e-16       1.228575390179e-11       1.543807602247e-12      -7.818848597330e-15 
   96       3.644730909867e-10       1.008886581608e-13      -2.888778539780e-12       4.157679959010e-16       1.195509160770e-11       1.510309573887e-12      -7.738286114733e-15 
   97       3.687828206958e-10       1.030492464620e-13      -2.981375243536e-12       4.245679261983e-16       1.163614054425e-11       1.477894221779e-12      -7.656579041139e-15 
   98       3.731231187777e-10       1.051965212449e-13      -3.074314974309e-12       4.334671306105e-16       1.132863758470e-11       1.446539778448e-12      -7.574352865597e-15 
   99       3.774936404324e-10       1.073284430457e-13      -3.167528212677e-12       4.424657662133e-16       1.103220198106e-11       1.416212938527e-12      -7.492269174643e-15 
  100       3.818938550938e-10       1.094429433907e-13      -3.260944157359e-12       4.515639798429e-16       1.074633132369e-11       1.386868456013e-12      -7.411026329354e-15 
  101       3.863230390741e-10       1.115379252282e-13      -3.354490743070e-12       4.607619077071e-16       1.047039750082e-11       1.358448741524e-12      -7.331360142404e-15 
  102       3.907802682080e-10       1.136112633596e-13      -3.448094658392e-12       4.700596749972e-16       1.020364265821e-11       1.330883459550e-12      -7.254044555115e-15 
  103       3.952644104974e-10       1.156608048711e-13      -3.541681363632e-12       4.794573954996e-16       9.945175158665e-12       1.304089125712e-12      -7.179892314517e-15 
  104       3.997743646173e-10       1.176844240514e-13      -3.635175757118e-12       4.889552982360e-16       9.694171646187e-12       1.277988824190e-12      -7.109563752390e-15 
  105       4.043098279716e-10       1.196801946675e-13      -3.728504238124e-12       4.985541277054e-16       9.450523027632e-12       1.252575260901e-12      -7.042962245530e-15 
  106       4.088706191606e-10       1.216462418734e-13      -3.821592957214e-12       5.082547972364e-16       9.214268627491e-12       1.227855516706e-12      -6.979757973029e-15 
  107       4.134564367864e-10       1.235806908194e-13      -3.914367217384e-12       5.180582677823e-16       8.985396121659e-12       1.203831508392e-12      -6.919571107312e-15 
