# dimensionless total [l(l+1)/2pi] C_l's
# for l=2 to 3100, i.e. number of multipoles equal to 3099
#
# -> if you prefer output in CAMB/HealPix/LensPix units/order, set 'format' to 'camb' in input file
# -> if you don't want to see such a header, set 'headers' to 'no' in input file
# -> for CMB lensing (phi), these are C_l^phi-phi for the lensing potential.
#    Remember the conversion factors:
#    C_l^dd (deflection) = l(l+1) C_l^phi-phi
#    C_l^gg (shear/convergence) = 1/4 (l(l+1))^2 C_l^phi-phi
#
# 1:l     2:TT                     3:EE                     4:TE                     5:BB                     6:phiphi                 7:TPhi                   8:Ephi               
    2       2.763970699112e-10       4.706366134350e-15       5.331509722485e-13       0.000000000000e+00       1.163960378259e-08       1.048778476882e-09      -1.789240655450e-12 
    3       2.355809166787e-10       6.083836674244e-15       5.924707651986e-13       0.000000000000e+00       7.168551906765e-09       7.184227808509e-10      -1.241258975447e-12 
    4       2.058151925759e-10       5.342730054234e-15       5.380698303140e-13       0.000000000000e+00       4.973213435324e-09       5.302109105410e-10      -7.416449468035e-13 
    5       1.850880895103e-10       3.626418445966e-15       4.337827654426e-13       0.000000000000e+00       3.696774520361e-09       4.106010971897e-10      -3.817962886640e-13 
    6       1.704170449643e-10       2.041411748050e-15       3.217300663739e-13       0.000000000000e+00       2.872990099486e-09       3.284475897384e-10      -1.455026029303e-13 
    7       1.597275053944e-10       1.067255336348e-15       2.296164526577e-13       0.000000000000e+00       2.303850336706e-09       2.688674122891e-10      -2.346064836422e-15 
    8       1.518716577594e-10       6.367185276628e-16       1.672577342430e-13       0.000000000000e+00       1.891465634444e-09       2.240590548412e-10       7.044063535251e-14 
    9       1.460774785577e-10       4.853427263493e-16       1.310817753789e-13       0.000000000000e+00       1.582389681360e-09       1.895159925785e-10       8.922547255526e-14 
   10       1.418041774030e-10       4.158143351522e-16       1.138960048409e-13       0.000000000000e+00       1.344598910870e-09       1.622990301549e-10       7.113092693533e-14 
   11       1.387043694233e-10       3.615582609484e-16       1.097132743240e-13       0.000000000000e+00       1.133340035910e-09       1.403414436160e-10       3.483609798728e-14 
   12       1.364801301972e-10       3.271188115070e-16       1.135780342840e-13       0.000000000000e+00       9.843639354658e-10       1.222924384364e-10      -4.561026841051e-15 
   13       1.349675872886e-10       3.212989445796e-16       1.214234901491e-13       0.000000000000e+00       8.626156475724e-10       1.070852903621e-10      -3.546977387913e-14 
   14       1.340501080598e-10       3.359235088183e-16       1.304888560522e-13       0.000000000000e+00       7.618059163822e-10       9.459602663682e-11      -5.244176723233e-14 
   15       1.336031867494e-10       3.585040286983e-16       1.392359586743e-13       0.000000000000e+00       6.770769129450e-10       8.393740276854e-11      -5.589391584791e-14 
   16       1.334849234006e-10       3.866561738176e-16       1.472255142908e-13       0.000000000000e+00       6.053176686033e-10       7.470851822111e-11      -4.891019744559e-14 
   17       1.337010431740e-10       4.279276082736e-16       1.547881684186e-13       0.000000000000e+00       5.440551503091e-10       6.682595036178e-11      -3.656463874094e-14 
   18       1.341890814098e-10       4.912061159941e-16       1.624373985167e-13       0.000000000000e+00       4.911341466567e-10       6.002324293337e-11      -2.395394908967e-14 
   19       1.349312983567e-10       5.787343828830e-16       1.706773921994e-13       0.000000000000e+00       4.455949508189e-10       5.415117158543e-11      -1.407440527037e-14 
   20       1.358512246560e-10       6.895584317381e-16       1.799663449774e-13       0.000000000000e+00       4.055658803779e-10       4.896580578206e-11      -9.158919209889e-15 
   21       1.369362325485e-10       8.220512905393e-16       1.902421429245e-13       0.000000000000e+00       3.704490812104e-10       4.440827941657e-11      -8.937377525529e-15 
   22       1.381527495491e-10       9.738876382550e-16       2.011589945799e-13       0.000000000000e+00       3.394698811449e-10       4.040312630369e-11      -1.185635369170e-14 
   23       1.395074760488e-10       1.144667073667e-15       2.122768397234e-13       0.000000000000e+00       3.121225249054e-10       3.687744847232e-11      -1.617491507330e-14 
   24       1.409888142137e-10       1.334301751047e-15       2.230503814878e-13       0.000000000000e+00       2.876529527295e-10       3.371795707501e-11      -1.991321239780e-14 
   25       1.425842548071e-10       1.542313778351e-15       2.330278364000e-13       0.000000000000e+00       2.657812949859e-10       3.089318244694e-11      -2.200051714305e-14 
   26       1.442622584688e-10       1.768419249000e-15       2.418071961107e-13       0.000000000000e+00       2.461543320730e-10       2.836831352231e-11      -2.180647325169e-14 
   27       1.460226630279e-10       2.014850327931e-15       2.493205237742e-13       0.000000000000e+00       2.285155069500e-10       2.610900806570e-11      -1.982038420392e-14 
   28       1.478616712977e-10       2.284672418456e-15       2.556363012348e-13       0.000000000000e+00       2.125187779619e-10       2.406611938866e-11      -1.697591809075e-14 
   29       1.497836197433e-10       2.579787437631e-15       2.608534206157e-13       0.000000000000e+00       1.980680762225e-10       2.222663606317e-11      -1.392336466189e-14 
   30       1.517785220337e-10       2.901810916508e-15       2.651236777614e-13       0.000000000000e+00       1.850004606149e-10       2.057059798113e-11      -1.134903632361e-14 
   31       1.538233278726e-10       3.252264635001e-15       2.686109914505e-13       0.000000000000e+00       1.730388139810e-10       1.906355575330e-11      -9.919520336882e-15 
   32       1.559224674056e-10       3.631969315573e-15       2.713095717108e-13       0.000000000000e+00       1.621129720971e-10       1.769606833207e-11      -9.604529356321e-15 
   33       1.580793297183e-10       4.041402752898e-15       2.731579058379e-13       0.000000000000e+00       1.521362225130e-10       1.645614034097e-11      -1.009213750955e-14 
   34       1.602879619348e-10       4.480978319305e-15       2.740654389096e-13       0.000000000000e+00       1.429580931348e-10       1.532368918115e-11      -1.098684760250e-14 
   35       1.625461358787e-10       4.951526385107e-15       2.738460094234e-13       0.000000000000e+00       1.345272354373e-10       1.429167964175e-11      -1.192330660547e-14 
   36       1.648446748612e-10       5.453970283074e-15       2.722568768733e-13       0.000000000000e+00       1.267727875760e-10       1.335078434011e-11      -1.248048307853e-14 
   37       1.671696726819e-10       5.989202162029e-15       2.690688192796e-13       0.000000000000e+00       1.195894262762e-10       1.248720655193e-11      -1.227761078555e-14 
   38       1.695259724998e-10       6.558102395070e-15       2.642567278670e-13       0.000000000000e+00       1.129548686031e-10       1.169700259332e-11      -1.142737753637e-14 
   39       1.719200907773e-10       7.161522005203e-15       2.578721777474e-13       0.000000000000e+00       1.068437713912e-10       1.097555673621e-11      -1.023444008183e-14 
   40       1.743531699469e-10       7.800274236289e-15       2.499946419328e-13       0.000000000000e+00       1.011919789679e-10       1.031320058935e-11      -9.080560373480e-15 
   41       1.768228273541e-10       8.475110316847e-15       2.407064635039e-13       0.000000000000e+00       9.591793884852e-11       9.698284341262e-12      -8.331295471182e-15 
   42       1.793308584804e-10       9.186643388316e-15       2.300037733752e-13       0.000000000000e+00       9.100339836895e-11       9.128618274727e-12      -8.007446268033e-15 
   43       1.818770383841e-10       9.935395523835e-15       2.178595139241e-13       0.000000000000e+00       8.643333069405e-11       8.603037936752e-12      -8.015118294699e-15 
   44       1.844564732579e-10       1.072181331322e-14       2.042476191334e-13       0.000000000000e+00       8.217180961611e-11       8.118045158361e-12      -8.233128978596e-15 
   45       1.870625130457e-10       1.154631855755e-14       1.891378184957e-13       0.000000000000e+00       7.817434521621e-11       7.669003435933e-12      -8.535339901314e-15 
   46       1.896975368781e-10       1.240948794395e-14       1.724784298018e-13       0.000000000000e+00       7.443318050472e-11       7.254588585373e-12      -8.869718993337e-15 
   47       1.923646635515e-10       1.331192021588e-14       1.542082535143e-13       0.000000000000e+00       7.094272731373e-11       6.873352236065e-12      -9.199952466424e-15 
   48       1.950644608275e-10       1.425418523896e-14       1.342608407226e-13       0.000000000000e+00       6.768593065376e-11       6.522352249505e-12      -9.483077231207e-15 
   49       1.977947095675e-10       1.523682311411e-14       1.125641005091e-13       0.000000000000e+00       6.463342268733e-11       6.197046258546e-12      -9.669125833506e-15 
   50       2.005520976553e-10       1.626027193997e-14       8.905140097461e-14       0.000000000000e+00       6.175209162375e-11       5.892495522590e-12      -9.718576286592e-15 
   51       2.033383910302e-10       1.732463004200e-14       6.369933555523e-14       0.000000000000e+00       5.903549323057e-11       5.607608715727e-12      -9.661109262010e-15 
   52       2.061555300032e-10       1.842982767011e-14       3.649952925328e-14       0.000000000000e+00       5.648023177468e-11       5.341866042985e-12      -9.552186124678e-15 
   53       2.090037042584e-10       1.957568856457e-14       7.448185670659e-15       0.000000000000e+00       5.407687317098e-11       5.094065867764e-12      -9.457109348530e-15 
   54       2.118812078007e-10       2.076192571140e-14      -2.345376474709e-14       0.000000000000e+00       5.180954201110e-11       4.862279913012e-12      -9.451505330299e-15 
   55       2.147857415589e-10       2.198825101907e-14      -5.620412310031e-14       0.000000000000e+00       4.966058981646e-11       4.644396179504e-12      -9.600691561745e-15 
   56       2.177190324332e-10       2.325474597821e-14      -9.081114289453e-14       0.000000000000e+00       4.762688100521e-11       4.440008270546e-12      -9.890669786713e-15 
   57       2.206831076479e-10       2.456157564708e-14      -1.272844612330e-13       0.000000000000e+00       4.570684687333e-11       4.248916947438e-12      -1.028083574910e-14 
   58       2.236788609107e-10       2.590888298741e-14      -1.656317397321e-13       0.000000000000e+00       4.389556791655e-11       4.070562109784e-12      -1.072326041219e-14 
   59       2.267059637630e-10       2.729678905837e-14      -2.058586567952e-13       0.000000000000e+00       4.218456843925e-11       3.904000894746e-12      -1.116235008509e-14 
   60       2.297627769294e-10       2.872539321052e-14      -2.479688998866e-13       0.000000000000e+00       4.056161116344e-11       3.747885776287e-12      -1.153450654920e-14 
   61       2.328473866647e-10       3.019465289316e-14      -2.919627026377e-13       0.000000000000e+00       3.901400992440e-11       3.600798046456e-12      -1.178270434402e-14 
   62       2.359611861735e-10       3.170399111217e-14      -3.378320899318e-13       0.000000000000e+00       3.753990131698e-11       3.462385275688e-12      -1.190481506934e-14 
   63       2.391059444262e-10       3.325260080499e-14      -3.855645469600e-13       0.000000000000e+00       3.613915013541e-11       3.332441466341e-12      -1.191557624380e-14 
   64       2.422827001933e-10       3.483955389809e-14      -4.351443273807e-13       0.000000000000e+00       3.480996263450e-11       3.210563785853e-12      -1.183276209100e-14 
   65       2.454917090907e-10       3.646379768106e-14      -4.865523994218e-13       0.000000000000e+00       3.354879276482e-11       3.096141942001e-12      -1.167731697610e-14 
   66       2.487323906253e-10       3.812415118078e-14      -5.397663919837e-13       0.000000000000e+00       3.235024840788e-11       2.988347558147e-12      -1.147348884252e-14 
   67       2.520032752400e-10       3.981930153557e-14      -5.947605407419e-13       0.000000000000e+00       3.120699761125e-11       2.886123548494e-12      -1.124896264852e-14 
   68       2.553028387293e-10       4.154794947538e-14      -6.515083579250e-13       0.000000000000e+00       3.011168515018e-11       2.788439336212e-12      -1.102928653392e-14 
   69       2.586323201868e-10       4.330928809786e-14      -7.099913903082e-13       0.000000000000e+00       2.906334276006e-11       2.695140308586e-12      -1.081954055987e-14 
   70       2.619933825417e-10       4.510261503702e-14      -7.701921471501e-13       0.000000000000e+00       2.806211531048e-11       2.606252187927e-12      -1.061917621831e-14 
   71       2.653872459920e-10       4.692719212505e-14      -8.320915490124e-13       0.000000000000e+00       2.710732381267e-11       2.521726660860e-12      -1.042738274903e-14 
   72       2.688146577453e-10       4.878224557993e-14      -8.956689435220e-13       0.000000000000e+00       2.619742306968e-11       2.441437552627e-12      -1.024307461037e-14 
   73       2.722758617585e-10       5.066696619298e-14      -9.609021211327e-13       0.000000000000e+00       2.532995932652e-11       2.365177001394e-12      -1.006487894985e-14 
   74       2.757705684785e-10       5.258050951651e-14      -1.027767330887e-12       0.000000000000e+00       2.450152792031e-11       2.292651632548e-12      -9.891123074795e-15 
   75       2.792979245818e-10       5.452199605142e-14      -1.096239296179e-12       0.000000000000e+00       2.370773093046e-11       2.223478733006e-12      -9.719821923041e-15 
   76       2.828570347621e-10       5.649044013153e-14      -1.166289552688e-12       0.000000000000e+00       2.294425262886e-11       2.157275801939e-12      -9.549384516525e-15 
   77       2.864487038293e-10       5.848452119041e-14      -1.237881077434e-12       0.000000000000e+00       2.221040585674e-11       2.093956512551e-12      -9.380909745778e-15 
   78       2.900739587908e-10       6.050277093098e-14      -1.310972704393e-12       0.000000000000e+00       2.150615841017e-11       2.033482020588e-12      -9.216288414557e-15 
   79       2.937335063536e-10       6.254363967456e-14      -1.385520697091e-12       0.000000000000e+00       2.083105349711e-11       1.975770495782e-12      -9.057523574876e-15 
   80       2.974277139856e-10       6.460549508630e-14      -1.461478729961e-12       0.000000000000e+00       2.018419030888e-11       1.920695210912e-12      -8.906732740990e-15 
   81       3.011565909750e-10       6.668662090066e-14      -1.538797869702e-12       0.000000000000e+00       1.956420459177e-11       1.868082630871e-12      -8.766150103365e-15 
   82       3.049197694914e-10       6.878521564690e-14      -1.617426556634e-12       0.000000000000e+00       1.896924921856e-11       1.817710501724e-12      -8.638128742664e-15 
   83       3.087164856459e-10       7.089939137451e-14      -1.697310586054e-12       0.000000000000e+00       1.839697476010e-11       1.769305939773e-12      -8.525142843718e-15 
   84       3.125459447506e-10       7.302725086253e-14      -1.778395003717e-12       0.000000000000e+00       1.784509456887e-11       1.722607164567e-12      -8.429082783976e-15 
   85       3.164085281569e-10       7.516713674590e-14      -1.860630194138e-12       0.000000000000e+00       1.731323022236e-11       1.677564642492e-12      -8.349001280309e-15 
   86       3.203047526907e-10       7.731742154417e-14      -1.943966772115e-12       0.000000000000e+00       1.680133781649e-11       1.634169939956e-12      -8.282995923061e-15 
   87       3.242348919433e-10       7.947643289365e-14      -2.028353771671e-12       0.000000000000e+00       1.630914119153e-11       1.592394215329e-12      -8.228873552682e-15 
   88       3.281989637890e-10       8.164245359184e-14      -2.113738659578e-12       0.000000000000e+00       1.583612232740e-11       1.552187377653e-12      -8.184140589240e-15 
   89       3.321967179021e-10       8.381372164204e-14      -2.200067348893e-12       0.000000000000e+00       1.538151173896e-11       1.513477245350e-12      -8.145993361938e-15 
   90       3.362276232753e-10       8.598843029781e-14      -2.287284212476e-12       0.000000000000e+00       1.494427887128e-11       1.476168704929e-12      -8.111308438627e-15 
   91       3.402908557361e-10       8.816472810752e-14      -2.375332096519e-12       0.000000000000e+00       1.452312249491e-11       1.440142869696e-12      -8.076632955326e-15 
   92       3.443852854654e-10       9.034071895889e-14      -2.464152334077e-12       0.000000000000e+00       1.411646110118e-11       1.405256238463e-12      -8.038174945733e-15 
   93       3.485098379607e-10       9.251448549259e-14      -2.553684878056e-12       0.000000000000e+00       1.372280638334e-11       1.371375908569e-12      -7.992634682920e-15 
   94       3.526646661428e-10       9.468416327462e-14      -2.643868693693e-12       0.000000000000e+00       1.334196879657e-11       1.338493100438e-12      -7.939862735646e-15 
   95       3.568501322758e-10       9.684787791367e-14      -2.734641450390e-12       0.000000000000e+00       1.297401639979e-11       1.306625231104e-12      -7.880585664307e-15 
   96       3.610664429698e-10       9.900372304646e-14      -2.825939422472e-12       0.000000000000e+00       1.261890363752e-11       1.275781039500e-12      -7.815602478052e-15 
   97       3.653136418252e-10       1.011497607030e-13      -2.917697504354e-12       0.000000000000e+00       1.227646699374e-11       1.245960240070e-12      -7.745786508736e-15 
   98       3.695916020760e-10       1.032840216720e-13      -3.009849225708e-12       0.000000000000e+00       1.194642064572e-11       1.217153176396e-12      -7.672087284873e-15 
   99       3.739000192338e-10       1.054045058660e-13      -3.102326766627e-12       0.000000000000e+00       1.162835211784e-11       1.189340474812e-12      -7.595532405585e-15 
  100       3.782384037314e-10       1.075091826868e-13      -3.195060972794e-12       0.000000000000e+00       1.132171793545e-11       1.162492698032e-12      -7.517229414557e-15 
  101       3.826060735665e-10       1.095959913908e-13      -3.287981370649e-12       0.000000000000e+00       1.102583927873e-11       1.136569998761e-12      -7.438367673984e-15 
  102       3.870021469459e-10       1.116628414542e-13      -3.381016182555e-12       0.000000000000e+00       1.073989763647e-11       1.111521773322e-12      -7.360220238529e-15 
  103       3.914255349285e-10       1.137076129383e-13      -3.474092341964e-12       0.000000000000e+00       1.046293045996e-11       1.087286315275e-12      -7.284145729268e-15 
  104       3.958751774584e-10       1.157282103542e-13      -3.567136281994e-12       0.000000000000e+00       1.019404895044e-11       1.063804671438e-12      -7.211306047523e-15 
  105       4.003508036195e-10       1.177227317549e-13      -3.660076389810e-12       0.000000000000e+00       9.933134288245e-12       1.041065087711e-12      -7.141772051505e-15 
  106       4.048522608437e-10       1.196893232725e-13      -3.752840913616e-12       0.000000000000e+00       9.680227789416e-12       1.019063949434e-12      -7.075300000794e-15 
  107       4.093792760682e-10       1.216261286004e-13      -3.845357242226e-12       0.000000000000e+00       9.435315288492e-12       9.977919271212e-13      -7.011603694671e-15 
