# Matter power spectrum P(k) at redshift z=3
# for k=1.04018e-05 to 1.4771 h/Mpc,
# number of wavenumbers equal to 614
#    1:k (h/Mpc)              2:P (Mpc/h)^3        
       1.040175925610e-05       5.078299732232e+00 
       2.325725832986e-05       1.105959833397e+01 
       3.615771495291e-05       1.694761884706e+01 
       4.913770134233e-05       2.280117282880e+01 
       6.223235866076e-05       2.865440138707e+01 
       7.547770912784e-05       3.453330856702e+01 
       8.891097806537e-05       4.046040553492e+01 
       1.025709301444e-04       4.645662153051e+01 
       1.164982241345e-04       5.254229079019e+01 
       1.307357904903e-04       5.873775679780e+01 
       1.453292361151e-04       6.506379770636e+01 
       1.603272805874e-04       7.154196243714e+01 
       1.757822279596e-04       7.819486142794e+01 
       1.917504778822e-04       8.504643551080e+01 
       2.082930791631e-04       9.212221614495e+01 
       2.254763278234e-04       9.944958448885e+01 
       2.433724100870e-04       1.070580330910e+02 
       2.620600883280e-04       1.149794311189e+02 
       2.816254245386e-04       1.232482913779e+02 
       3.021625310330e-04       1.319020344917e+02 
       3.237743315214e-04       1.409812422263e+02 
       3.465733069522e-04       1.505298878128e+02 
       3.706821892768e-04       1.605955260997e+02 
       3.962345522711e-04       1.712294203569e+02 
       4.233752317646e-04       1.824865756384e+02 
       4.522604885736e-04       1.944256411074e+02 
       4.830578074042e-04       2.071086363136e+02 
       5.159452064235e-04       2.206004503025e+02 
       5.511099190558e-04       2.349680594631e+02 
       5.887463075275e-04       2.502794127139e+02 
       6.290528839447e-04       2.666019440358e+02 
       6.722283570696e-04       2.840006955498e+02 
       7.184666979140e-04       3.025360714648e+02 
       7.679513268907e-04       3.222612941404e+02 
       8.208486635457e-04       3.432196941899e+02 
       8.773014297000e-04       3.654420280202e+02 
       9.374222294461e-04       3.889440647735e+02 
       1.001288008904e-03       4.137247044101e+02 
       1.068935991367e-03       4.397648663419e+02 
       1.140361571142e-03       4.670273187212e+02 
       1.215518439860e-03       4.954575100833e+02 
       1.294320948910e-03       5.249853381969e+02 
       1.376648437672e-03       5.555276737039e+02 
       1.462351038017e-03       5.869913746124e+02 
       1.477104874446e-03       5.923740042408e+02 
       1.551256342979e-03       6.192764974433e+02 
       1.643176314406e-03       6.522794321284e+02 
       1.737913885037e-03       6.858957474773e+02 
       1.835268850474e-03       7.200226118456e+02 
       1.935042806936e-03       7.545607296822e+02 
       2.037043039176e-03       7.894140569216e+02 
       2.141085379978e-03       8.244955818891e+02 
       2.246996141149e-03       8.597239572529e+02 
       2.354613258321e-03       8.950244283071e+02 
       2.463786805754e-03       9.303292273647e+02 
       2.574379031600e-03       9.655774202118e+02 
       2.686264047031e-03       1.000714599065e+03 
       2.799327280566e-03       1.035692467797e+03 
       2.913464786072e-03       1.070468361586e+03 
       3.028582471893e-03       1.105004738657e+03 
       3.144595300495e-03       1.139268675566e+03 
       3.261426493318e-03       1.173231389343e+03 
       3.379006764014e-03       1.206867800659e+03 
       3.497273594602e-03       1.240156143293e+03 
       3.616170562641e-03       1.273077618070e+03 
       3.735646723075e-03       1.305616084952e+03 
       3.855656045230e-03       1.337757785535e+03 
       3.976156903448e-03       1.369491089206e+03 
       4.097111618546e-03       1.400806258678e+03 
       4.218486046579e-03       1.431695233427e+03 
       4.340249211045e-03       1.462151431602e+03 
       4.462372974589e-03       1.492169571763e+03 
       4.584831746366e-03       1.521745515444e+03 
       4.707602221401e-03       1.550876130183e+03 
       4.830663148553e-03       1.579559171286e+03 
       4.953995123953e-03       1.607793179463e+03 
       5.077580407095e-03       1.635577391153e+03 
       5.201402757022e-03       1.662911658755e+03 
       5.325447286326e-03       1.689796180083e+03 
       5.449700330933e-03       1.716231970528e+03 
       5.574149333861e-03       1.742220388505e+03 
       5.698782741360e-03       1.767763102960e+03 
       5.823589910005e-03       1.792862110455e+03 
       5.948561023522e-03       1.817519697451e+03 
       6.073687018208e-03       1.841738407553e+03 
       6.198959516018e-03       1.865521012190e+03 
       6.324370764417e-03       1.888870482986e+03 
       6.449913582291e-03       1.911789965723e+03 
       6.575581311205e-03       1.934282754832e+03 
       6.701367771461e-03       1.956352269551e+03 
       6.827267222410e-03       1.978002032047e+03 
       6.953274326575e-03       1.999235648788e+03 
       7.079384117173e-03       2.020056795255e+03 
       7.205591968689e-03       2.040469204287e+03 
       7.331893570163e-03       2.060476657270e+03 
       7.458284900939e-03       2.080082977322e+03 
       7.584762208596e-03       2.099292023476e+03 
       7.711321988863e-03       2.118107684908e+03 
       7.837960967308e-03       2.136533874794e+03 
       7.964676082624e-03       2.154574523675e+03 
       8.091464471372e-03       2.172233572610e+03 
       8.218323454014e-03       2.189514966508e+03 
       8.345250522139e-03       2.206422648015e+03 
       8.472243326755e-03       2.222960549545e+03 
       8.599299667543e-03       2.239132578815e+03 
       8.726417483001e-03       2.254943114336e+03 
       8.853594841380e-03       2.270395909751e+03 
       8.980829932347e-03       2.285494453693e+03 
       9.108121059314e-03       2.300242606708e+03 
       9.235466632366e-03       2.314644195151e+03 
       9.362865161740e-03       2.328703017347e+03 
       9.490315251810e-03       2.342422845057e+03 
       9.617815595529e-03       2.355807423746e+03 
       9.745364969289e-03       2.368860472773e+03 
       9.872962228174e-03       2.381585685766e+03 
       1.000060630156e-02       2.393986730846e+03 
       1.012829618906e-02       2.406067250384e+03 
       1.025603095670e-02       2.417830860280e+03 
       1.038380973349e-02       2.429281149113e+03 
       1.051163170812e-02       2.440421676328e+03 
       1.063949612600e-02       2.451255970721e+03 
       1.076740228639e-02       2.461787528361e+03 
       1.089534953989e-02       2.472019810990e+03 
       1.102333728596e-02       2.481956244885e+03 
       1.115136497068e-02       2.491600220319e+03 
       1.127943208471e-02       2.500955092095e+03 
       1.140753816129e-02       2.510024180966e+03 
       1.153568277450e-02       2.518810775959e+03 
       1.166386553750e-02       2.527318137376e+03 
       1.179208610104e-02       2.535549499911e+03 
       1.192034415196e-02       2.543508076017e+03 
       1.204863941189e-02       2.551197058056e+03 
       1.217697163592e-02       2.558619591067e+03 
       1.230534061148e-02       2.565778890389e+03 
       1.243374615728e-02       2.572678087704e+03 
       1.256218812222e-02       2.579320302317e+03 
       1.269066638453e-02       2.585708636628e+03 
       1.281918085086e-02       2.591846156224e+03 
       1.294773145551e-02       2.597735855855e+03 
       1.307631815962e-02       2.603380640324e+03 
       1.320494095057e-02       2.608783361717e+03 
       1.333359984128e-02       2.613946881747e+03 
       1.346229486963e-02       2.618874089059e+03 
       1.359102609796e-02       2.623567875020e+03 
       1.371979361254e-02       2.628031110151e+03 
       1.384859752313e-02       2.632266635351e+03 
       1.397743796255e-02       2.636277261616e+03 
       1.410631508635e-02       2.640065772228e+03 
       1.423522907242e-02       2.643634924908e+03 
       1.436418012072e-02       2.646987453251e+03 
       1.449316845301e-02       2.650126067832e+03 
       1.462219431257e-02       2.653053456909e+03 
       1.475125796404e-02       2.655772286909e+03 
       1.477104874446e-02       2.656170854264e+03 
       1.488035969319e-02       2.658285202927e+03 
       1.500949980680e-02       2.660594828949e+03 
       1.513867863253e-02       2.662703768242e+03 
       1.526789651878e-02       2.664614603643e+03 
       1.539715383465e-02       2.666329897831e+03 
       1.552645096986e-02       2.667852193468e+03 
       1.565578833472e-02       2.669184013638e+03 
       1.578516636011e-02       2.670327861949e+03 
       1.591458549753e-02       2.671286222856e+03 
       1.604404621905e-02       2.672061561756e+03 
       1.617354901745e-02       2.672656325343e+03 
       1.630309440620e-02       2.673072941754e+03 
       1.643268291963e-02       2.673313820735e+03 
       1.656231511296e-02       2.673381353936e+03 
       1.669199156249e-02       2.673277914961e+03 
       1.682171286569e-02       2.673005859681e+03 
       1.695147964140e-02       2.672567526337e+03 
       1.708129252998e-02       2.671965235725e+03 
       1.721115219351e-02       2.671201291307e+03 
       1.734105931601e-02       2.670277979494e+03 
       1.747101460366e-02       2.669197569459e+03 
       1.760101878506e-02       2.667962313564e+03 
       1.773107261145e-02       2.666574447261e+03 
       1.786117685705e-02       2.665036189309e+03 
       1.799133231930e-02       2.663349741913e+03 
       1.812153981921e-02       2.661517290716e+03 
       1.825180020166e-02       2.659541005107e+03 
       1.838211433576e-02       2.657423038213e+03 
       1.851248311522e-02       2.655165526974e+03 
       1.864290745869e-02       2.652770592459e+03 
       1.877338831020e-02       2.650240339596e+03 
       1.890392663956e-02       2.647576857586e+03 
       1.903452344277e-02       2.644782219672e+03 
       1.916517974248e-02       2.641858483466e+03 
       1.929589658848e-02       2.638807690874e+03 
       1.942667505813e-02       2.635631868042e+03 
       1.955751625691e-02       2.632333025651e+03 
       1.968842131890e-02       2.628913158768e+03 
       1.981939140738e-02       2.625374246925e+03 
       1.995042771529e-02       2.621718254213e+03 
       2.008153146592e-02       2.617947129330e+03 
       2.021270391341e-02       2.614062805478e+03 
       2.034394634343e-02       2.610067200517e+03 
       2.047526007381e-02       2.605962217002e+03 
       2.060664645516e-02       2.601749742032e+03 
       2.073810687161e-02       2.597431647503e+03 
       2.086964274146e-02       2.593009789986e+03 
       2.100125551795e-02       2.588486010755e+03 
       2.113294668997e-02       2.583862135842e+03 
       2.126471778289e-02       2.579139975913e+03 
       2.139657035931e-02       2.574321326520e+03 
       2.152850601988e-02       2.569407967855e+03 
       2.166052640420e-02       2.564401664954e+03 
       2.179263319165e-02       2.559304167545e+03 
       2.192482810234e-02       2.554117210040e+03 
       2.205711289799e-02       2.548842511767e+03 
       2.218948938293e-02       2.543481776663e+03 
       2.232195940509e-02       2.538036693382e+03 
       2.245452485700e-02       2.532508935462e+03 
       2.258718767687e-02       2.526900160972e+03 
       2.271994984968e-02       2.521212012869e+03 
       2.285281340829e-02       2.515446118056e+03 
       2.298578043460e-02       2.509604090029e+03 
       2.311885306075e-02       2.503687525109e+03 
       2.325203347034e-02       2.497698004930e+03 
       2.338532389973e-02       2.491637095667e+03 
       2.351872663931e-02       2.485506348241e+03 
       2.365224403489e-02       2.479307298163e+03 
       2.378587848907e-02       2.473041465475e+03 
       2.391963246270e-02       2.466710354879e+03 
       2.405350847634e-02       2.460315455669e+03 
       2.418750911182e-02       2.453858241540e+03 
       2.432163701381e-02       2.447340170955e+03 
       2.445589489146e-02       2.440762686734e+03 
       2.459028552007e-02       2.434127216159e+03 
       2.472481174285e-02       2.427435171113e+03 
       2.485947647274e-02       2.420687947903e+03 
       2.499428269420e-02       2.413886927268e+03 
       2.512923346521e-02       2.407033474432e+03 
       2.526433191919e-02       2.400128938818e+03 
       2.539958126710e-02       2.393174654520e+03 
       2.553498479952e-02       2.386171939971e+03 
       2.567054588886e-02       2.379122097734e+03 
       2.580626799164e-02       2.372026415118e+03 
       2.594215465077e-02       2.364886163168e+03 
       2.607820949806e-02       2.357702597799e+03 
       2.621443625667e-02       2.350476959021e+03 
       2.635083874370e-02       2.343210471023e+03 
       2.648742087291e-02       2.335904342343e+03 
       2.662418665747e-02       2.328559765868e+03 
       2.676114021285e-02       2.321177918516e+03 
       2.689828575981e-02       2.313759961611e+03 
       2.703562762744e-02       2.306307040592e+03 
       2.717317025644e-02       2.298820284999e+03 
       2.731091820235e-02       2.291300808727e+03 
       2.744887613905e-02       2.283749709824e+03 
       2.758704886228e-02       2.276168070331e+03 
       2.772544129336e-02       2.268556956470e+03 
       2.786405848304e-02       2.260917418762e+03 
       2.800290561542e-02       2.253250491621e+03 
       2.814198801216e-02       2.245557193730e+03 
       2.828131113669e-02       2.237838527700e+03 
       2.842088059872e-02       2.230095480325e+03 
       2.856070215885e-02       2.222329022418e+03 
       2.870078173337e-02       2.214540108841e+03 
       2.884112539925e-02       2.206729678567e+03 
       2.898173939936e-02       2.198898654424e+03 
       2.912263014786e-02       2.191047943320e+03 
       2.926380423583e-02       2.183178436311e+03 
       2.940526843711e-02       2.175291008200e+03 
       2.954702971441e-02       2.167386517855e+03 
       2.968909522562e-02       2.159465808084e+03 
       2.983147233046e-02       2.151529705606e+03 
       2.997416859736e-02       2.143579021050e+03 
       3.011719181061e-02       2.135614548960e+03 
       3.026054997786e-02       2.127637067753e+03 
       3.040425133795e-02       2.119647339658e+03 
       3.054830436906e-02       2.111646110689e+03 
       3.069271779716e-02       2.103634110823e+03 
       3.083750060499e-02       2.095612053598e+03 
       3.098266204126e-02       2.087580636535e+03 
       3.112821163039e-02       2.079540540688e+03 
       3.127415918266e-02       2.071492430740e+03 
       3.142051480479e-02       2.063436955266e+03 
       3.156728891108e-02       2.055374746255e+03 
       3.171449223499e-02       2.047306419381e+03 
       3.186213584135e-02       2.039232573658e+03 
       3.201023113907e-02       2.031153791767e+03 
       3.215878989455e-02       2.023070639837e+03 
       3.230782424565e-02       2.014983667069e+03 
       3.245734671642e-02       2.006893406368e+03 
       3.260737023254e-02       1.998800373658e+03 
       3.275790813751e-02       1.990705068003e+03 
       3.290897420965e-02       1.982607971639e+03 
       3.306058268005e-02       1.974509549852e+03 
       3.321274825133e-02       1.966410250932e+03 
       3.336548611750e-02       1.958310505802e+03 
       3.351881198473e-02       1.950210728128e+03 
       3.367274209337e-02       1.942111314454e+03 
       3.382729324105e-02       1.934012643514e+03 
       3.398248280705e-02       1.925915076930e+03 
       3.413832877808e-02       1.917818958091e+03 
       3.429484977542e-02       1.909724612736e+03 
       3.445206508359e-02       1.901632348246e+03 
       3.460999468069e-02       1.893542454279e+03 
       3.476865927048e-02       1.885455201768e+03 
       3.492808031624e-02       1.877370843300e+03 
       3.508828007675e-02       1.869289612283e+03 
       3.524928164431e-02       1.861211723497e+03 
       3.541110898511e-02       1.853137372463e+03 
       3.557378698199e-02       1.845066735071e+03 
       3.573734147990e-02       1.836999967365e+03 
       3.590179933417e-02       1.828937205432e+03 
       3.606718846181e-02       1.820878565064e+03 
       3.623353789612e-02       1.812824141406e+03 
       3.640087784482e-02       1.804774008142e+03 
       3.656923975195e-02       1.796728217842e+03 
       3.673865636396e-02       1.788686801358e+03 
       3.690916180018e-02       1.780649766682e+03 
       3.708079162809e-02       1.772617099487e+03 
       3.725358294385e-02       1.764588762056e+03 
       3.742757445836e-02       1.756564692571e+03 
       3.760280658953e-02       1.748544805007e+03 
       3.777932156110e-02       1.740528988199e+03 
       3.795716350871e-02       1.732517105245e+03 
       3.813637859378e-02       1.724508992574e+03 
       3.831701512601e-02       1.716504459394e+03 
       3.849912369504e-02       1.708503286962e+03 
       3.868275731245e-02       1.700505227348e+03 
       3.886797156479e-02       1.692510002002e+03 
       3.905482477878e-02       1.684517302091e+03 
       3.924337819991e-02       1.676526786078e+03 
       3.943369618561e-02       1.668538078734e+03 
       3.962584641461e-02       1.660550770036e+03 
       3.981990011396e-02       1.652564413801e+03 
       4.001593230558e-02       1.644578525511e+03 
       4.021402207440e-02       1.636592581084e+03 
       4.041425286034e-02       1.628606015036e+03 
       4.061671277670e-02       1.620618217910e+03 
       4.082149495782e-02       1.612628534562e+03 
       4.102869793931e-02       1.604636261600e+03 
       4.123842607452e-02       1.596640644817e+03 
       4.145078999136e-02       1.588640875666e+03 
       4.166590709438e-02       1.580636088996e+03 
       4.188390211719e-02       1.572625359115e+03 
       4.210490773178e-02       1.564607695801e+03 
       4.232906522136e-02       1.556582040302e+03 
       4.255652522504e-02       1.548547260493e+03 
       4.278744856347e-02       1.540502145836e+03 
       4.302200715615e-02       1.532445401706e+03 
       4.326038504257e-02       1.524375642915e+03 
       4.350277952159e-02       1.516291386294e+03 
       4.374940242536e-02       1.508191043238e+03 
       4.400048154715e-02       1.500072910702e+03 
       4.425626224543e-02       1.491935161041e+03 
       4.451700925048e-02       1.483775830766e+03 
       4.478300870440e-02       1.475592807719e+03 
       4.505457047088e-02       1.467383816959e+03 
       4.533203075777e-02       1.459146403878e+03 
       4.561575510349e-02       1.450877915135e+03 
       4.590614178805e-02       1.442575477705e+03 
       4.620362574145e-02       1.434235973160e+03 
       4.650868303677e-02       1.425856008943e+03 
       4.682183607289e-02       1.417431884392e+03 
       4.714365957438e-02       1.408959551041e+03 
       4.747478756282e-02       1.400434566435e+03 
       4.781592148831e-02       1.391852037798e+03 
       4.816783975216e-02       1.383206556813e+03 
       4.853140890511e-02       1.374492119899e+03 
       4.890759687259e-02       1.365702032104e+03 
       4.929748864335e-02       1.356828790191e+03 
       4.970230496523e-02       1.347863938774e+03 
       5.012342472888e-02       1.338797892079e+03 
       5.056241189439e-02       1.329619710695e+03 
       5.102104803788e-02       1.320316820834e+03 
       5.150137187833e-02       1.310874655257e+03 
       5.200572750342e-02       1.301276191351e+03 
       5.253682346483e-02       1.291501350624e+03 
       5.309780547265e-02       1.281526206886e+03 
       5.369234609306e-02       1.271321934896e+03 
       5.432475562875e-02       1.260853392727e+03 
       5.500011916830e-02       1.250077197022e+03 
       5.572446544857e-02       1.238939073487e+03 
       5.650497326609e-02       1.227370186511e+03 
       5.735021982734e-02       1.215282011917e+03 
       5.827047090463e-02       1.202559159237e+03 
       5.927800168921e-02       1.189049355877e+03 
