# Matter power spectrum P(k) at redshift z=0
# for k=1.04018e-05 to 1.4771 h/Mpc,
# number of wavenumbers equal to 614
#    1:k (h/Mpc)              2:P (Mpc/h)^3        
       1.040175925610e-05       4.956747550066e+01 
       2.325725832986e-05       1.079484783931e+02 
       3.615771495291e-05       1.654183021428e+02 
       4.913770134233e-05       2.225505851945e+02 
       6.223235866076e-05       2.796781479758e+02 
       7.547770912784e-05       3.370543584108e+02 
       8.891097806537e-05       3.948984508631e+02 
       1.025709301444e-04       4.534141660874e+02 
       1.164982241345e-04       5.127993707035e+02 
       1.307357904903e-04       5.732519397391e+02 
       1.453292361151e-04       6.349738914209e+02 
       1.603272805874e-04       6.981746473457e+02 
       1.757822279596e-04       7.630738466727e+02 
       1.917504778822e-04       8.300311678152e+02 
       2.082930791631e-04       8.990492912593e+02 
       2.254763278234e-04       9.705116925758e+02 
       2.433724100870e-04       1.044704260005e+03 
       2.620600883280e-04       1.121935734709e+03 
       2.816254245386e-04       1.202540257822e+03 
       3.021625310330e-04       1.286879883579e+03 
       3.237743315214e-04       1.375346983168e+03 
       3.465733069522e-04       1.468366417627e+03 
       3.706821892768e-04       1.566397331911e+03 
       3.962345522711e-04       1.669934337965e+03 
       4.233752317646e-04       1.779454260297e+03 
       4.522604885736e-04       1.895791177993e+03 
       4.830578074042e-04       2.019152447061e+03 
       5.159452064235e-04       2.150351832280e+03 
       5.511099190558e-04       2.290197145599e+03 
       5.887463075275e-04       2.438912698987e+03 
       6.290528839447e-04       2.597769055206e+03 
       6.722283570696e-04       2.766950348035e+03 
       7.184666979140e-04       2.947002085646e+03 
       7.679513268907e-04       3.138620340783e+03 
       8.208486635457e-04       3.342198881466e+03 
       8.773014297000e-04       3.557976963053e+03 
       9.374222294461e-04       3.786180000938e+03 
       1.001288008904e-03       4.026613227646e+03 
       1.068935991367e-03       4.279508160195e+03 
       1.140361571142e-03       4.544242981824e+03 
       1.215518439860e-03       4.820294833316e+03 
       1.294320948910e-03       5.106995766046e+03 
       1.376648437672e-03       5.403603240117e+03 
       1.462351038017e-03       5.709173337639e+03 
       1.477104874446e-03       5.761428929741e+03 
       1.551256342979e-03       6.022711573954e+03 
       1.643176314406e-03       6.343258439446e+03 
       1.737913885037e-03       6.669847546616e+03 
       1.835268850474e-03       7.001305785161e+03 
       1.935042806936e-03       7.336862747033e+03 
       2.037043039176e-03       7.675465186812e+03 
       2.141085379978e-03       8.016274074484e+03 
       2.246996141149e-03       8.358513248753e+03 
       2.354613258321e-03       8.701427493636e+03 
       2.463786805754e-03       9.044442639457e+03 
       2.574379031600e-03       9.386911731925e+03 
       2.686264047031e-03       9.728295670868e+03 
       2.799327280566e-03       1.006813671247e+04 
       2.913464786072e-03       1.040602272796e+04 
       3.028582471893e-03       1.074158525821e+04 
       3.144595300495e-03       1.107450355818e+04 
       3.261426493318e-03       1.140450180580e+04 
       3.379006764014e-03       1.173131301659e+04 
       3.497273594602e-03       1.205477935546e+04 
       3.616170562641e-03       1.237467107039e+04 
       3.735646723075e-03       1.269083981522e+04 
       3.855656045230e-03       1.300314665313e+04 
       3.976156903448e-03       1.331149755643e+04 
       4.097111618546e-03       1.361579223378e+04 
       4.218486046579e-03       1.391593930083e+04 
       4.340249211045e-03       1.421188904101e+04 
       4.462372974589e-03       1.450357898181e+04 
       4.584831746366e-03       1.479096978011e+04 
       4.707602221401e-03       1.507404128048e+04 
       4.830663148553e-03       1.535275471973e+04 
       4.953995123953e-03       1.562712219112e+04 
       5.077580407095e-03       1.589710970645e+04 
       5.201402757022e-03       1.616271421272e+04 
       5.325447286326e-03       1.642395282237e+04 
       5.449700330933e-03       1.668084164964e+04 
       5.574149333861e-03       1.693342232088e+04 
       5.698782741360e-03       1.717894453805e+04 
       5.823589910005e-03       1.742271256925e+04 
       5.948561023522e-03       1.766525155550e+04 
       6.073687018208e-03       1.789745291373e+04 
       6.198959516018e-03       1.812842782638e+04 
       6.324370764417e-03       1.835866460756e+04 
       6.449913582291e-03       1.858126362563e+04 
       6.575581311205e-03       1.879969204575e+04 
       6.701367771461e-03       1.901302669419e+04 
       6.827267222410e-03       1.922329242190e+04 
       6.953274326575e-03       1.942950534512e+04 
       7.079384117173e-03       1.963170946662e+04 
       7.205591968689e-03       1.982994113108e+04 
       7.331893570163e-03       2.002423715070e+04 
       7.458284900939e-03       2.021463469608e+04 
       7.584762208596e-03       2.040117136549e+04 
       7.711321988863e-03       2.058388492216e+04 
       7.837960967308e-03       2.076281152287e+04 
       7.964676082624e-03       2.093799310406e+04 
       8.091464471372e-03       2.110946610288e+04 
       8.218323454014e-03       2.127726290891e+04 
       8.345250522139e-03       2.144142686700e+04 
       8.472243326755e-03       2.160529331160e+04 
       8.599299667543e-03       2.176167430975e+04 
       8.726417483001e-03       2.191615290431e+04 
       8.853594841380e-03       2.206610702043e+04 
       8.980829932347e-03       2.221264071495e+04 
       9.108121059314e-03       2.235576940500e+04 
       9.235466632366e-03       2.249596467107e+04 
       9.362865161740e-03       2.263214778833e+04 
       9.490315251810e-03       2.276611621395e+04 
       9.617815595529e-03       2.289626745173e+04 
       9.745364969289e-03       2.302286737330e+04 
       9.872962228174e-03       2.314625896437e+04 
       1.000060630156e-02       2.326652582896e+04 
       1.012829618906e-02       2.338448846698e+04 
       1.025603095670e-02       2.349759793251e+04 
       1.038380973349e-02       2.360871055401e+04 
       1.051163170812e-02       2.371677258645e+04 
       1.063949612600e-02       2.382371062371e+04 
       1.076740228639e-02       2.392579345792e+04 
       1.089534953989e-02       2.402496948273e+04 
       1.102333728596e-02       2.412127403220e+04 
       1.115136497068e-02       2.421474012083e+04 
       1.127943208471e-02       2.430540036970e+04 
       1.140753816129e-02       2.439328707978e+04 
       1.153568277450e-02       2.447843221112e+04 
       1.166386553750e-02       2.456257226874e+04 
       1.179208610104e-02       2.464232413045e+04 
       1.192034415196e-02       2.471942848810e+04 
       1.204863941189e-02       2.479391631330e+04 
       1.217697163592e-02       2.486581827715e+04 
       1.230534061148e-02       2.493516569219e+04 
       1.243374615728e-02       2.500198906748e+04 
       1.256218812222e-02       2.506631879210e+04 
       1.269066638453e-02       2.512818507085e+04 
       1.281918085086e-02       2.518761673767e+04 
       1.294773145551e-02       2.524464374292e+04 
       1.307631815962e-02       2.529929299603e+04 
       1.320494095057e-02       2.535395975103e+04 
       1.333359984128e-02       2.540401821635e+04 
       1.346229486963e-02       2.545166513109e+04 
       1.359102609796e-02       2.549770252263e+04 
       1.371979361254e-02       2.554110016963e+04 
       1.384859752313e-02       2.558202783335e+04 
       1.397743796255e-02       2.562073614945e+04 
       1.410631508635e-02       2.565714386658e+04 
       1.423522907242e-02       2.569234739236e+04 
       1.436418012072e-02       2.572469975796e+04 
       1.449316845301e-02       2.575497697271e+04 
       1.462219431257e-02       2.578252959894e+04 
       1.475125796404e-02       2.581031150054e+04 
       1.477104874446e-02       2.581415040314e+04 
       1.488035969319e-02       2.583450934513e+04 
       1.500949980680e-02       2.585673523107e+04 
       1.513867863253e-02       2.587701442645e+04 
       1.526789651878e-02       2.589635118638e+04 
       1.539715383465e-02       2.591305029261e+04 
       1.552645096986e-02       2.592761977203e+04 
       1.565578833472e-02       2.593920734840e+04 
       1.578516636011e-02       2.595012771832e+04 
       1.591458549753e-02       2.596103429543e+04 
       1.604404621905e-02       2.596842832093e+04 
       1.617354901745e-02       2.597409850850e+04 
       1.630309440620e-02       2.597847599909e+04 
       1.643268291963e-02       2.598059623321e+04 
       1.656231511296e-02       2.598127904317e+04 
       1.669199156249e-02       2.598012171634e+04 
       1.682171286569e-02       2.597726938909e+04 
       1.695147964140e-02       2.597275920022e+04 
       1.708129252998e-02       2.596676096282e+04 
       1.721115219351e-02       2.596017510992e+04 
       1.734105931601e-02       2.595099355822e+04 
       1.747101460366e-02       2.594028869168e+04 
       1.760101878506e-02       2.592807933797e+04 
       1.773107261145e-02       2.591438765983e+04 
       1.786117685705e-02       2.589923791292e+04 
       1.799133231930e-02       2.588378581733e+04 
       1.812153981921e-02       2.586577748536e+04 
       1.825180020166e-02       2.584637464701e+04 
       1.838211433576e-02       2.582559819059e+04 
       1.851248311522e-02       2.580346884802e+04 
       1.864290745869e-02       2.578001005315e+04 
       1.877338831020e-02       2.575620541572e+04 
       1.890392663956e-02       2.573015466091e+04 
       1.903452344277e-02       2.570283176317e+04 
       1.916517974248e-02       2.567425669660e+04 
       1.929589658848e-02       2.564444928563e+04 
       1.942667505813e-02       2.561342920696e+04 
       1.955751625691e-02       2.558121599732e+04 
       1.968842131890e-02       2.554782873705e+04 
       1.981939140738e-02       2.551328695453e+04 
       1.995042771529e-02       2.547884845963e+04 
       2.008153146592e-02       2.544209722172e+04 
       2.021270391341e-02       2.540453269376e+04 
       2.034394634343e-02       2.536567729574e+04 
       2.047526007381e-02       2.532562349910e+04 
       2.060664645516e-02       2.528452766330e+04 
       2.073810687161e-02       2.524231373684e+04 
       2.086964274146e-02       2.519946887059e+04 
       2.100125551795e-02       2.515536440304e+04 
       2.113294668997e-02       2.511091836510e+04 
       2.126471778289e-02       2.506487219687e+04 
       2.139657035931e-02       2.501789080299e+04 
       2.152850601988e-02       2.496999145054e+04 
       2.166052640420e-02       2.492084009534e+04 
       2.179263319165e-02       2.487198168043e+04 
       2.192482810234e-02       2.482141206742e+04 
       2.205711289799e-02       2.477000605010e+04 
       2.218948938293e-02       2.471776623429e+04 
       2.232195940509e-02       2.466470887180e+04 
       2.245452485700e-02       2.461085033428e+04 
       2.258718767687e-02       2.455714034262e+04 
       2.271994984968e-02       2.450174101052e+04 
       2.285281340829e-02       2.444560655566e+04 
       2.298578043460e-02       2.438895390661e+04 
       2.311885306075e-02       2.433143219558e+04 
       2.325203347034e-02       2.427252798578e+04 
       2.338532389973e-02       2.421435871389e+04 
       2.351872663931e-02       2.415467908259e+04 
       2.365224403489e-02       2.409429629514e+04 
       2.378587848907e-02       2.403357760053e+04 
       2.391963246270e-02       2.397191012929e+04 
       2.405350847634e-02       2.390974219200e+04 
       2.418750911182e-02       2.384685362829e+04 
       2.432163701381e-02       2.378368126339e+04 
       2.445589489146e-02       2.371938896407e+04 
       2.459028552007e-02       2.365531381508e+04 
       2.472481174285e-02       2.359014390925e+04 
       2.485947647274e-02       2.352443992518e+04 
       2.499428269420e-02       2.345821525816e+04 
       2.512923346521e-02       2.339148315152e+04 
       2.526433191919e-02       2.332425658898e+04 
       2.539958126710e-02       2.325721303715e+04 
       2.553498479952e-02       2.318903497668e+04 
       2.567054588886e-02       2.312040085745e+04 
       2.580626799164e-02       2.305132317126e+04 
       2.594215465077e-02       2.298181425240e+04 
       2.607820949806e-02       2.291188618524e+04 
       2.621443625667e-02       2.284155110129e+04 
       2.635083874370e-02       2.277148878143e+04 
       2.648742087291e-02       2.270039755736e+04 
       2.662418665747e-02       2.262916263432e+04 
       2.676114021285e-02       2.255730474878e+04 
       2.689828575981e-02       2.248504659278e+04 
       2.703562762744e-02       2.241265583741e+04 
       2.717317025644e-02       2.233978919213e+04 
       2.731091820235e-02       2.226685351446e+04 
       2.744887613905e-02       2.219360662937e+04 
       2.758704886228e-02       2.211942319493e+04 
       2.772544129336e-02       2.204592640583e+04 
       2.786405848304e-02       2.197159701323e+04 
       2.800290561542e-02       2.189701354673e+04 
       2.814198801216e-02       2.182231040115e+04 
       2.828131113669e-02       2.174726416056e+04 
       2.842088059872e-02       2.167192293149e+04 
       2.856070215885e-02       2.159656345810e+04 
       2.870078173337e-02       2.152059937391e+04 
       2.884112539925e-02       2.144495264253e+04 
       2.898173939936e-02       2.136873980195e+04 
       2.912263014786e-02       2.129233739214e+04 
       2.926380423583e-02       2.121575404979e+04 
       2.940526843711e-02       2.113942622756e+04 
       2.954702971441e-02       2.106250573681e+04 
       2.968909522562e-02       2.098557978414e+04 
       2.983147233046e-02       2.090835860790e+04 
       2.997416859736e-02       2.083099718551e+04 
       3.011719181061e-02       2.075350321691e+04 
       3.026054997786e-02       2.067588424611e+04 
       3.040425133795e-02       2.059837542295e+04 
       3.054830436906e-02       2.052063402889e+04 
       3.069271779716e-02       2.044293809322e+04 
       3.083750060499e-02       2.036488324806e+04 
       3.098266204126e-02       2.028659194307e+04 
       3.112821163039e-02       2.020870322874e+04 
       3.127415918266e-02       2.013039759227e+04 
       3.142051480479e-02       2.005202177073e+04 
       3.156728891108e-02       1.997358188999e+04 
       3.171449223499e-02       1.989508387362e+04 
       3.186213584135e-02       1.981694129831e+04 
       3.201023113907e-02       1.973835800097e+04 
       3.215878989455e-02       1.965959946815e+04 
       3.230782424565e-02       1.958092274225e+04 
       3.245734671642e-02       1.950261421198e+04 
       3.260737023254e-02       1.942389973274e+04 
       3.275790813751e-02       1.934528455070e+04 
       3.290897420965e-02       1.926650745801e+04 
       3.306058268005e-02       1.918790480450e+04 
       3.321274825133e-02       1.910900587955e+04 
       3.336548611750e-02       1.903044017094e+04 
       3.351881198473e-02       1.895163832018e+04 
       3.367274209337e-02       1.887284130458e+04 
       3.382729324105e-02       1.879429442456e+04 
       3.398248280705e-02       1.871551804517e+04 
       3.413832877808e-02       1.863675693767e+04 
       3.429484977542e-02       1.855801425345e+04 
       3.445206508359e-02       1.847929291039e+04 
       3.460999468069e-02       1.840093279925e+04 
       3.476865927048e-02       1.832220924665e+04 
       3.492808031624e-02       1.824356430335e+04 
       3.508828007675e-02       1.816495086480e+04 
       3.524928164431e-02       1.808658459421e+04 
       3.541110898511e-02       1.800803839575e+04 
       3.557378698199e-02       1.792982381799e+04 
       3.573734147990e-02       1.785136059420e+04 
       3.590179933417e-02       1.777302963815e+04 
       3.606718846181e-02       1.769467242969e+04 
       3.623353789612e-02       1.761646066741e+04 
       3.640087784482e-02       1.753807158644e+04 
       3.656923975195e-02       1.745985485313e+04 
       3.673865636396e-02       1.738163479481e+04 
       3.690916180018e-02       1.730372682348e+04 
       3.708079162809e-02       1.722561659032e+04 
       3.725358294385e-02       1.714760425668e+04 
       3.742757445836e-02       1.706958817051e+04 
       3.760280658953e-02       1.699171095747e+04 
       3.777932156110e-02       1.691365774792e+04 
       3.795716350871e-02       1.683589927384e+04 
       3.813637859378e-02       1.675800287958e+04 
       3.831701512601e-02       1.668014219468e+04 
       3.849912369504e-02       1.660246175674e+04 
       3.868275731245e-02       1.652466446889e+04 
       3.886797156479e-02       1.644711818416e+04 
       3.905482477878e-02       1.636939359614e+04 
       3.924337819991e-02       1.629176384133e+04 
       3.943369618561e-02       1.621404264711e+04 
       3.962584641461e-02       1.613640981224e+04 
       3.981990011396e-02       1.605886051856e+04 
       4.001593230558e-02       1.598124102450e+04 
       4.021402207440e-02       1.590360614673e+04 
       4.041425286034e-02       1.582605418661e+04 
       4.061671277670e-02       1.574835658642e+04 
       4.082149495782e-02       1.567059517548e+04 
       4.102869793931e-02       1.559306875130e+04 
       4.123842607452e-02       1.551537537031e+04 
       4.145078999136e-02       1.543763018834e+04 
       4.166590709438e-02       1.535977033972e+04 
       4.188390211719e-02       1.528185342870e+04 
       4.210490773178e-02       1.520405466117e+04 
       4.232906522136e-02       1.512607173814e+04 
       4.255652522504e-02       1.504794820924e+04 
       4.278744856347e-02       1.496979788036e+04 
       4.302200715615e-02       1.489137314815e+04 
       4.326038504257e-02       1.481301608948e+04 
       4.350277952159e-02       1.473438290726e+04 
       4.374940242536e-02       1.465576487396e+04 
       4.400048154715e-02       1.457675943501e+04 
       4.425626224543e-02       1.449775314131e+04 
       4.451700925048e-02       1.441842762065e+04 
       4.478300870440e-02       1.433894427535e+04 
       4.505457047088e-02       1.425909660701e+04 
       4.533203075777e-02       1.417911076214e+04 
       4.561575510349e-02       1.409868597346e+04 
       4.590614178805e-02       1.401812338073e+04 
       4.620362574145e-02       1.393701553901e+04 
       4.650868303677e-02       1.385561698234e+04 
       4.682183607289e-02       1.377367666435e+04 
       4.714365957438e-02       1.369141138737e+04 
       4.747478756282e-02       1.360854931369e+04 
       4.781592148831e-02       1.352515274059e+04 
       4.816783975216e-02       1.344114569166e+04 
       4.853140890511e-02       1.335643345386e+04 
       4.890759687259e-02       1.327099149448e+04 
       4.929748864335e-02       1.318479021482e+04 
       4.970230496523e-02       1.309768903685e+04 
       5.012342472888e-02       1.300958551736e+04 
       5.056241189439e-02       1.292038981692e+04 
       5.102104803788e-02       1.282992344553e+04 
       5.150137187833e-02       1.273822712764e+04 
       5.200572750342e-02       1.264489624187e+04 
       5.253682346483e-02       1.254993791208e+04 
       5.309780547265e-02       1.245303447625e+04 
       5.369234609306e-02       1.235387040270e+04 
       5.432475562875e-02       1.225212892288e+04 
       5.500011916830e-02       1.214734650496e+04 
       5.572446544857e-02       1.203915188684e+04 
       5.650497326609e-02       1.192671974752e+04 
       5.735021982734e-02       1.180924376993e+04 
       5.827047090463e-02       1.168559249819e+04 
       5.927800168921e-02       1.155432151172e+04 
