# dimensionless total [l(l+1)/2pi] C_l's
# for l=2 to 3100, i.e. number of multipoles equal to 3099
#
# -> if you prefer output in CAMB/HealPix/LensPix units/order, set 'format' to 'camb' in input file
# -> if you don't want to see such a header, set 'headers' to 'no' in input file
# -> for CMB lensing (phi), these are C_l^phi-phi for the lensing potential.
#    Remember the conversion factors:
#    C_l^dd (deflection) = l(l+1) C_l^phi-phi
#    C_l^gg (shear/convergence) = 1/4 (l(l+1))^2 C_l^phi-phi
#
# 1:l     2:TT                     3:EE                     4:TE                     5:BB                     6:phiphi                 7:TPhi                   8:Ephi               
    2       1.576193774157e-10       4.459936355471e-15       3.972311717170e-13       0.000000000000e+00       9.130101975561e-09       5.458522734311e-10      -1.919325193865e-12 
    3       1.457252994097e-10       5.744368264671e-15       4.435933738646e-13       0.000000000000e+00       5.611520313734e-09       3.826909223040e-10      -1.437686054341e-12 
    4       1.358003476181e-10       4.990151754234e-15       4.110193111866e-13       0.000000000000e+00       3.897333758962e-09       2.873268634224e-10      -9.301617802403e-13 
    5       1.286861238676e-10       3.341944869360e-15       3.461397414934e-13       0.000000000000e+00       2.906424858080e-09       2.254341661802e-10      -5.112058775218e-13 
    6       1.238399283900e-10       1.871127269200e-15       2.750133190547e-13       0.000000000000e+00       2.268348741450e-09       1.824331225153e-10      -2.073054190041e-13 
    7       1.206832248696e-10       1.003870964458e-15       2.126785615448e-13       0.000000000000e+00       1.828533068217e-09       1.510673087176e-10      -1.520541763757e-14 
    8       1.186824826537e-10       6.378503095276e-16       1.657232601815e-13       0.000000000000e+00       1.510015422904e-09       1.273428044563e-10       8.238891217302e-14 
    9       1.175861005519e-10       5.075979380852e-16       1.350318520559e-13       0.000000000000e+00       1.270383335613e-09       1.089301588618e-10       1.092736125872e-13 
   10       1.171641956876e-10       4.332023101032e-16       1.184016264202e-13       0.000000000000e+00       1.084683059550e-09       9.435418636498e-11       9.117669362636e-14 
   11       1.171960234453e-10       3.657763597311e-16       1.126168285394e-13       0.000000000000e+00       9.136255342069e-10       8.274772347386e-11       5.224152049076e-14 
   12       1.176480514121e-10       3.198232770147e-16       1.142562571598e-13       0.000000000000e+00       7.975446976679e-10       7.303843216172e-11       1.068630142127e-14 
   13       1.183838144660e-10       3.069846217410e-16       1.202037993749e-13       0.000000000000e+00       7.022961352160e-10       6.485434206656e-11      -2.149996385695e-14 
   14       1.193322868891e-10       3.190845701161e-16       1.281807449378e-13       0.000000000000e+00       6.230880822769e-10       5.792739071207e-11      -3.911630715132e-14 
   15       1.204995946460e-10       3.435506108690e-16       1.368035614393e-13       0.000000000000e+00       5.564369922642e-10       5.209824494498e-11      -4.247633990491e-14 
   16       1.218184977604e-10       3.775311217326e-16       1.454407664754e-13       0.000000000000e+00       4.998096409341e-10       4.708938295590e-11      -3.560633719412e-14 
   17       1.232822330051e-10       4.270603301507e-16       1.539693367915e-13       0.000000000000e+00       4.512710511833e-10       4.270142250616e-11      -2.405923053459e-14 
   18       1.248559444069e-10       4.987072209436e-16       1.626344258482e-13       0.000000000000e+00       4.091639964203e-10       3.886085944563e-11      -1.282162912871e-14 
   19       1.265405175186e-10       5.932256169656e-16       1.717429038212e-13       0.000000000000e+00       3.728146876769e-10       3.552189589995e-11      -4.639794603099e-15 
   20       1.282949152904e-10       7.086613324508e-16       1.815572627486e-13       0.000000000000e+00       3.408218007026e-10       3.255657383403e-11      -1.434467514229e-15 
   21       1.301271954633e-10       8.440836047852e-16       1.919983405703e-13       0.000000000000e+00       3.126806456245e-10       2.994490373292e-11      -2.718075910937e-15 
   22       1.320283591407e-10       9.985678015365e-16       2.027960955366e-13       0.000000000000e+00       2.877140261773e-10       2.765573168296e-11      -6.753172472915e-15 
   23       1.340003800432e-10       1.172272689735e-15       2.136343747774e-13       0.000000000000e+00       2.655712203880e-10       2.564114982307e-11      -1.170977488629e-14 
   24       1.360255413016e-10       1.365463544686e-15       2.241197792074e-13       0.000000000000e+00       2.457318523134e-10       2.382012854455e-11      -1.561235684531e-14 
   25       1.381002107686e-10       1.578025138972e-15       2.338703772836e-13       0.000000000000e+00       2.279619337010e-10       2.215361640545e-11      -1.763665122986e-14 
   26       1.402113872577e-10       1.810001105058e-15       2.425243929093e-13       0.000000000000e+00       2.119412840789e-10       2.060708097013e-11      -1.746810143137e-14 
   27       1.423686978789e-10       2.063592738295e-15       2.500103796009e-13       0.000000000000e+00       1.974760001950e-10       1.919930608208e-11      -1.560274488059e-14 
   28       1.445771998898e-10       2.341659068800e-15       2.563705500342e-13       0.000000000000e+00       1.843137152735e-10       1.795202056041e-11      -1.290084501206e-14 
   29       1.468404175211e-10       2.645783620434e-15       2.616585021928e-13       0.000000000000e+00       1.723854229376e-10       1.685068437980e-11      -1.006350535559e-14 
   30       1.491465552544e-10       2.977147160443e-15       2.659631790869e-13       0.000000000000e+00       1.615612060378e-10       1.585300722660e-11      -7.882038670965e-15 
   31       1.514730176395e-10       3.336865597605e-15       2.693841611396e-13       0.000000000000e+00       1.516179695671e-10       1.490875087938e-11      -7.098978325485e-15 
   32       1.538253889838e-10       3.725910321057e-15       2.719057540779e-13       0.000000000000e+00       1.425030304145e-10       1.401966545630e-11      -7.538309187575e-15 
   33       1.562103721790e-10       4.145144083583e-15       2.734761791593e-13       0.000000000000e+00       1.341506465467e-10       1.320055671327e-11      -8.635909647882e-15 
   34       1.586267672302e-10       4.595369838611e-15       2.740221680828e-13       0.000000000000e+00       1.264424649357e-10       1.246046013384e-11      -9.765106251469e-15 
   35       1.610736814408e-10       5.077459409116e-15       2.733888697306e-13       0.000000000000e+00       1.193384767550e-10       1.179256471178e-11      -1.063564073003e-14 
   36       1.635432950745e-10       5.592259814758e-15       2.713757270880e-13       0.000000000000e+00       1.127813059847e-10       1.117966776414e-11      -1.102527070270e-14 
   37       1.660243790614e-10       6.140578652957e-15       2.677938872594e-13       0.000000000000e+00       1.066850732151e-10       1.060221071491e-11      -1.075201268848e-14 
   38       1.685253958175e-10       6.723267183288e-15       2.626168175261e-13       0.000000000000e+00       1.010335529709e-10       1.005920022478e-11      -9.947816075391e-15 
   39       1.710578855747e-10       7.341158609732e-15       2.558796782396e-13       0.000000000000e+00       9.580825589703e-11       9.553564971217e-12      -8.878671605958e-15 
   40       1.736296736039e-10       7.995042170684e-15       2.476408249856e-13       0.000000000000e+00       9.095856838317e-11       9.086307044362e-12      -7.876880895784e-15 
   41       1.762441116503e-10       8.685655631483e-15       2.379602246313e-13       0.000000000000e+00       8.641925817080e-11       8.656460643467e-12      -7.259171998804e-15 
   42       1.788986519678e-10       9.413666741837e-15       2.268228327469e-13       0.000000000000e+00       8.217657135854e-11       8.261417959838e-12      -7.038638570027e-15 
   43       1.815850061878e-10       1.017968089762e-14       2.141926677037e-13       0.000000000000e+00       7.821894254280e-11       7.896383125578e-12      -7.126272847103e-15 
   44       1.842888994676e-10       1.098424211080e-14       2.000335085794e-13       0.000000000000e+00       7.451717146298e-11       7.554048829383e-12      -7.407470376140e-15 
   45       1.869957115305e-10       1.182784842961e-14       1.843064989586e-13       0.000000000000e+00       7.103477936289e-11       7.226731977821e-12      -7.763714541794e-15 
   46       1.897105804508e-10       1.271101124884e-14       1.669624884576e-13       0.000000000000e+00       6.776607410785e-11       6.913973959466e-12      -8.149198457314e-15 
   47       1.924434648356e-10       1.363420827918e-14       1.479471241518e-13       0.000000000000e+00       6.470708010095e-11       6.616900790457e-12      -8.534339805675e-15 
   48       1.952033890775e-10       1.459786438463e-14       1.272026007384e-13       0.000000000000e+00       6.184406178159e-11       6.336052991491e-12      -8.884177974891e-15 
   49       1.979983004846e-10       1.560234945015e-14       1.046673688155e-13       0.000000000000e+00       5.915279875778e-11       6.071335856242e-12      -9.158088150881e-15 
   50       2.008339025920e-10       1.664795563968e-14       8.028546234422e-14       0.000000000000e+00       5.660584188344e-11       5.822203933083e-12      -9.323181209593e-15 
   51       2.037101132151e-10       1.773482683980e-14       5.403814261406e-14       0.000000000000e+00       5.419828512843e-11       5.588388881671e-12      -9.399454663399e-15 
   52       2.066233980148e-10       1.886300637853e-14       2.592033941662e-14       0.000000000000e+00       5.192773621297e-11       5.369283220719e-12      -9.426403220707e-15 
   53       2.095675237695e-10       2.003245293255e-14      -4.068060289499e-15       0.000000000000e+00       4.978660606561e-11       5.163685590887e-12      -9.450753779235e-15 
   54       2.125333673249e-10       2.124303742502e-14      -3.592205143226e-14       0.000000000000e+00       4.776175952931e-11       4.969762045007e-12      -9.526823556495e-15 
   55       2.155120807747e-10       2.249460878231e-14      -6.963629435807e-14       0.000000000000e+00       4.583849816004e-11       4.785555888541e-12      -9.701860945278e-15 
   56       2.185059454606e-10       2.378721744030e-14      -1.052212257142e-13       0.000000000000e+00       4.401446745544e-11       4.610754198770e-12      -9.966983157353e-15 
   57       2.215198796996e-10       2.512094192814e-14      -1.426906679449e-13       0.000000000000e+00       4.228859266462e-11       4.445292343680e-12      -1.029467773085e-14 
   58       2.245582598177e-10       2.649582446377e-14      -1.820572664754e-13       0.000000000000e+00       4.065687280688e-11       4.288826919992e-12      -1.065252993606e-14 
   59       2.276248598617e-10       2.791187053454e-14      -2.233325214066e-13       0.000000000000e+00       3.911220016062e-11       4.140718415468e-12      -1.100299581731e-14 
   60       2.307227913117e-10       2.936904847790e-14      -2.665268192115e-13       0.000000000000e+00       3.764417975229e-11       4.000013871221e-12      -1.130317523474e-14 
   61       2.338544455436e-10       3.086719053677e-14      -3.116461436799e-13       0.000000000000e+00       3.624200411818e-11       3.865715620162e-12      -1.151428727555e-14 
   62       2.370214425124e-10       3.240567102189e-14      -3.586812743465e-13       0.000000000000e+00       3.490423999478e-11       3.737697214082e-12      -1.163309528746e-14 
   63       2.402245635165e-10       3.398365483664e-14      -4.076162087443e-13       0.000000000000e+00       3.363092803337e-11       3.615963255827e-12      -1.166716489120e-14 
   64       2.434636884226e-10       3.560018615239e-14      -4.584311970003e-13       0.000000000000e+00       3.242063945624e-11       3.500373367695e-12      -1.162586333036e-14 
   65       2.467377354657e-10       3.725418486309e-14      -5.111026681652e-13       0.000000000000e+00       3.127039248726e-11       3.390633930722e-12      -1.152044036209e-14 
   66       2.500446010483e-10       3.894444303968e-14      -5.656031565451e-13       0.000000000000e+00       3.017556878222e-11       3.286289823970e-12      -1.136410914778e-14 
   67       2.533810995402e-10       4.066962138468e-14      -6.219012280313e-13       0.000000000000e+00       2.912982985935e-11       3.186716163817e-12      -1.117212714370e-14 
   68       2.567441600031e-10       4.242839133886e-14      -6.799649717004e-13       0.000000000000e+00       2.812680407127e-11       3.091279187700e-12      -1.095937425380e-14 
   69       2.601348325142e-10       4.421990276340e-14      -7.397734608391e-13       0.000000000000e+00       2.716573125789e-11       2.999875225454e-12      -1.073233662688e-14 
   70       2.635549892121e-10       4.604340508861e-14      -8.013074925521e-13       0.000000000000e+00       2.624681697596e-11       2.912486599631e-12      -1.049563641815e-14 
   71       2.670061116475e-10       4.789811022285e-14      -8.645462451693e-13       0.000000000000e+00       2.536952555583e-11       2.829018279665e-12      -1.025440738983e-14 
   72       2.704892627289e-10       4.978319273221e-14      -9.294672957599e-13       0.000000000000e+00       2.453254181422e-11       2.749293947097e-12      -1.001431179316e-14 
   73       2.740050586683e-10       5.169779002011e-14      -9.960466376467e-13       0.000000000000e+00       2.373373276715e-11       2.673052060815e-12      -9.781557250412e-15 
   74       2.775536409277e-10       5.364100250694e-14      -1.064258697920e-12       0.000000000000e+00       2.297010934270e-11       2.599941922284e-12      -9.562913636997e-15 
   75       2.811346481648e-10       5.561189380969e-14      -1.134076354950e-12       0.000000000000e+00       2.223778809391e-11       2.529519740782e-12      -9.365729963450e-15 
   76       2.847476405248e-10       5.760942130199e-14      -1.205469532048e-12       0.000000000000e+00       2.153295300436e-11       2.461361200628e-12      -9.196221246364e-15 
   77       2.883935238558e-10       5.963221277827e-14      -1.278400643649e-12       0.000000000000e+00       2.085502802522e-11       2.395431559144e-12      -9.053931144183e-15 
   78       2.920733354443e-10       6.167874920036e-14      -1.352828346676e-12       0.000000000000e+00       2.020401619345e-11       2.331776202722e-12      -8.936285536220e-15 
   79       2.957877962344e-10       6.374742947632e-14      -1.428708879239e-12       0.000000000000e+00       1.957953337068e-11       2.270408611262e-12      -8.840214661094e-15 
   80       2.995372920501e-10       6.583656921243e-14      -1.505996048945e-12       0.000000000000e+00       1.898079046371e-11       2.211308812376e-12      -8.762134523488e-15 
   81       3.033218548163e-10       6.794439946527e-14      -1.584641221219e-12       0.000000000000e+00       1.840657564510e-11       2.154421835591e-12      -8.697928300912e-15 
   82       3.071411437811e-10       7.006906549370e-14      -1.664593307618e-12       0.000000000000e+00       1.785523657374e-11       2.099656166544e-12      -8.642927750461e-15 
   83       3.109944267371e-10       7.220862551088e-14      -1.745798754152e-12       0.000000000000e+00       1.732466261538e-11       2.046882201190e-12      -8.591894615578e-15 
   84       3.148809333463e-10       7.436112701923e-14      -1.828202794262e-12       0.000000000000e+00       1.681279709767e-11       1.995966800097e-12      -8.540040535010e-15 
   85       3.188010235472e-10       7.652485308885e-14      -1.911753472033e-12       0.000000000000e+00       1.631931059331e-11       1.946886919143e-12      -8.486321766114e-15 
   86       3.227551793165e-10       7.869811480851e-14      -1.996398267626e-12       0.000000000000e+00       1.584417372381e-11       1.899632069822e-12      -8.430659106630e-15 
   87       3.267436374477e-10       8.087917738801e-14      -2.082082901342e-12       0.000000000000e+00       1.538714304802e-11       1.854168968791e-12      -8.372946832864e-15 
   88       3.307663770271e-10       8.306626021405e-14      -2.168751343196e-12       0.000000000000e+00       1.494775219086e-11       1.810440598791e-12      -8.313051560263e-15 
   89       3.348231069090e-10       8.525753690622e-14      -2.256345822485e-12       0.000000000000e+00       1.452530297198e-11       1.768365269580e-12      -8.250811103992e-15 
   90       3.389132531913e-10       8.745113537289e-14      -2.344806837363e-12       0.000000000000e+00       1.411885653446e-11       1.727835678852e-12      -8.186033339519e-15 
   91       3.430359466910e-10       8.964513786719e-14      -2.434073164411e-12       0.000000000000e+00       1.372722447355e-11       1.688717973167e-12      -8.118495063187e-15 
   92       3.471900104200e-10       9.183758104294e-14      -2.524081868207e-12       0.000000000000e+00       1.334895996532e-11       1.650850808873e-12      -8.047940852798e-15 
   93       3.513743239992e-10       9.402648280958e-14      -2.614768899613e-12       0.000000000000e+00       1.298270082510e-11       1.614083484641e-12      -7.974214258440e-15 
   94       3.555890068016e-10       9.620992739559e-14      -2.706070972771e-12       0.000000000000e+00       1.262827697242e-11       1.578398939189e-12      -7.897676420312e-15 
   95       3.598343904256e-10       9.838599324162e-14      -2.797923989413e-12       0.000000000000e+00       1.228575390179e-11       1.543807602247e-12      -7.818848597330e-15 
   96       3.641106503597e-10       1.005527277595e-13      -2.890262492726e-12       0.000000000000e+00       1.195509160770e-11       1.510309573887e-12      -7.738286114733e-15 
   97       3.684177986316e-10       1.027081477560e-13      -2.983019684996e-12       0.000000000000e+00       1.163614054425e-11       1.477894221779e-12      -7.656579041139e-15 
   98       3.727556764585e-10       1.048502398567e-13      -3.076127445269e-12       0.000000000000e+00       1.132863758470e-11       1.446539778448e-12      -7.574352865597e-15 
   99       3.771239468965e-10       1.069769609299e-13      -3.169516346996e-12       0.000000000000e+00       1.103220198106e-11       1.416212938527e-12      -7.492269174643e-15 
  100       3.815220874903e-10       1.090862385103e-13      -3.263115675692e-12       0.000000000000e+00       1.074633132369e-11       1.386868456013e-12      -7.411026329354e-15 
  101       3.859493829232e-10       1.111759712225e-13      -3.356853446585e-12       0.000000000000e+00       1.047039750082e-11       1.358448741524e-12      -7.331360142404e-15 
  102       3.904049176663e-10       1.132440292057e-13      -3.450656422272e-12       0.000000000000e+00       1.020364265821e-11       1.330883459550e-12      -7.254044555115e-15 
  103       3.948875686288e-10       1.152882545363e-13      -3.544450130367e-12       0.000000000000e+00       9.945175158665e-12       1.304089125712e-12      -7.179892314517e-15 
  104       3.993962429280e-10       1.173065156684e-13      -3.638159530614e-12       0.000000000000e+00       9.694171646187e-12       1.277988824190e-12      -7.109563752390e-15 
  105       4.039306436134e-10       1.192968782136e-13      -3.731711080827e-12       0.000000000000e+00       9.450523027632e-12       1.252575260901e-12      -7.042962245530e-15 
  106       4.084905941593e-10       1.212574581280e-13      -3.825030984234e-12       0.000000000000e+00       9.214268627491e-12       1.227855516706e-12      -6.979757973029e-15 
  107       4.130757979806e-10       1.231863707624e-13      -3.918044589436e-12       0.000000000000e+00       8.985396121659e-12       1.203831508392e-12      -6.919571107312e-15 
