# Matter power spectrum P(k) at redshift z=3
# for k=1.04019e-05 to 1.4771 h/Mpc,
# number of wavenumbers equal to 614
#    1:k (h/Mpc)              2:P (Mpc/h)^3        
       1.040186328625e-05       5.078346639084e+00 
       2.325721418777e-05       1.105957325546e+01 
       3.615752168169e-05       1.694752408016e+01 
       4.913735678840e-05       2.280100891005e+01 
       6.223185944633e-05       2.865416796742e+01 
       7.547705060541e-05       3.453300463164e+01 
       8.891015425351e-05       4.046002948093e+01 
       1.025699336436e-04       4.645617119297e+01 
       1.164970460218e-04       5.254176344304e+01 
       1.307344201910e-04       5.873714913939e+01 
       1.453276612495e-04       6.506310583512e+01 
       1.603254867896e-04       7.154118181753e+01 
       1.757801986664e-04       7.819398685069e+01 
       1.917481940888e-04       8.504546104784e+01 
       2.082905191423e-04       9.212113509803e+01 
       2.254734668057e-04       9.944838933727e+01 
       2.433692198976e-04       1.070567154412e+02 
       2.620565369801e-04       1.149779816511e+02 
       2.816214757800e-04       1.232466998101e+02 
       3.021581438476e-04       1.319002895512e+02 
       3.237694595885e-04       1.409793316499e+02 
       3.465678980703e-04       1.505277983810e+02 
       3.706761847645e-04       1.605932437335e+02 
       3.962278863651e-04       1.712269302918e+02 
       4.233678310426e-04       1.824838626952e+02 
       4.522522714438e-04       1.944226901248e+02 
       4.830486837131e-04       2.071054327695e+02 
       5.159350772500e-04       2.205969811562e+02 
       5.510986767727e-04       2.349643143732e+02 
       5.887338362176e-04       2.502753855428e+02 
       6.290390602650e-04       2.665976348500e+02 
       6.722130516417e-04       2.839961131161e+02 
       7.184497772942e-04       3.025312362499e+02 
       7.679326561222e-04       3.222562417966e+02 
       8.208281092299e-04       3.432144796513e+02 
       8.772788634419e-04       3.654367297245e+02 
       9.373975314502e-04       3.889387894233e+02 
       1.001261071435e-03       4.137195913803e+02 
       1.068906721764e-03       4.397600921226e+02 
       1.140329894105e-03       4.670231006464e+02 
       1.215484298797e-03       4.954541098020e+02 
       1.294284306263e-03       5.249830637247e+02 
       1.376609274241e-03       5.555246571853e+02 
       1.462309351443e-03       5.869857320871e+02 
       1.477104874446e-03       5.923832716075e+02 
       1.551212145611e-03       6.192682663003e+02 
       1.643129630800e-03       6.522686352497e+02 
       1.737864749339e-03       6.858823923903e+02 
       1.835217303892e-03       7.200066894243e+02 
       1.934988895435e-03       7.545422142653e+02 
       2.036986811497e-03       7.893946442668e+02 
       2.141026886006e-03       8.244756585994e+02 
       2.246935430624e-03       8.597035639340e+02 
       2.354550379877e-03       8.950036045004e+02 
       2.463721806225e-03       9.303080104602e+02 
       2.574311955559e-03       9.655558466441e+02 
       2.686194936511e-03       1.000692703112e+03 
       2.799256174922e-03       1.035670281388e+03 
       2.913391721945e-03       1.070445916491e+03 
       3.028507483253e-03       1.104982062689e+03 
       3.144518418733e-03       1.139245796261e+03 
       3.261347747368e-03       1.173208334660e+03 
       3.378926180503e-03       1.206844591791e+03 
       3.497191198002e-03       1.240132805554e+03 
       3.616086375429e-03       1.273054171043e+03 
       3.735560765886e-03       1.305592551950e+03 
       3.855568337008e-03       1.337734183586e+03 
       3.976067461585e-03       1.369467437987e+03 
       4.097020459018e-03       1.400782576236e+03 
       4.218393184068e-03       1.431671530769e+03 
       4.340154659052e-03       1.462127728413e+03 
       4.462276745537e-03       1.492145883237e+03 
       4.584733851697e-03       1.521721854794e+03 
       4.707502671664e-03       1.550852508645e+03 
       4.830561953479e-03       1.579535605860e+03 
       4.953892292532e-03       1.607769676696e+03 
       5.077475947635e-03       1.635553967786e+03 
       5.201296677212e-03       1.662888319418e+03 
       5.325339593287e-03       1.689772939681e+03 
       5.449591031267e-03       1.716208834499e+03 
       5.574038433696e-03       1.742197369354e+03 
       5.698670246387e-03       1.767740212237e+03 
       5.823475825518e-03       1.792839357444e+03 
       5.948445354443e-03       1.817497081688e+03 
       6.073569769126e-03       1.841715941337e+03 
       6.198840691207e-03       1.865498701391e+03 
       6.324250367868e-03       1.888848344839e+03 
       6.449791617727e-03       1.911767999772e+03 
       6.575457782108e-03       1.934260965306e+03 
       6.701242681085e-03       1.956330665295e+03 
       6.827140573800e-03       1.977980628600e+03 
       6.953146122582e-03       1.999214433267e+03 
       7.079254360468e-03       2.020035780150e+03 
       7.205460661776e-03       2.040448395999e+03 
       7.331760715390e-03       2.060456066869e+03 
       7.458150500509e-03       2.080062601535e+03 
       7.584626264578e-03       2.099271870109e+03 
       7.711184503198e-03       2.118087761183e+03 
       7.837821941821e-03       2.136514181323e+03 
       7.964535519029e-03       2.154555078665e+03 
       8.091322371278e-03       2.172214360148e+03 
       8.218179818935e-03       2.189495995734e+03 
       8.345105353500e-03       2.206403933193e+03 
       8.472096625891e-03       2.222942078180e+03 
       8.599151435712e-03       2.239114351893e+03 
       8.726267721385e-03       2.254925141563e+03 
       8.853443551088e-03       2.270378204430e+03 
       8.980677114422e-03       2.285477003413e+03 
       9.107966714735e-03       2.300225439299e+03 
       9.235310762051e-03       2.314627288270e+03 
       9.362707766552e-03       2.328686385528e+03 
       9.490156332556e-03       2.342406474786e+03 
       9.617655152965e-03       2.355791309635e+03 
       9.745203004122e-03       2.368844646567e+03 
       9.872798741066e-03       2.381570131882e+03 
       1.000044129313e-02       2.393971476935e+03 
       1.012812965987e-02       2.406052253298e+03 
       1.025586290730e-02       2.417816157590e+03 
       1.038364016436e-02       2.429266715126e+03 
       1.051146061974e-02       2.440407555221e+03 
       1.063932351877e-02       2.451242114175e+03 
       1.076722816072e-02       2.461773967732e+03 
       1.089517389612e-02       2.472006522098e+03 
       1.102316012441e-02       2.481943233359e+03 
       1.115118629166e-02       2.491587511689e+03 
       1.127925188848e-02       2.500942691835e+03 
       1.140735644809e-02       2.510012045592e+03 
       1.153549954454e-02       2.518798931390e+03 
       1.166368079096e-02       2.527306582450e+03 
       1.179189983808e-02       2.535538253814e+03 
       1.192015637272e-02       2.543497093315e+03 
       1.204845011646e-02       2.551186371597e+03 
       1.217678082440e-02       2.558609191382e+03 
       1.230514828394e-02       2.565768778332e+03 
       1.243355231375e-02       2.572668263069e+03 
       1.256199276272e-02       2.579310764548e+03 
       1.269046950905e-02       2.585699387389e+03 
       1.281898245939e-02       2.591837196104e+03 
       1.294753154799e-02       2.597727178173e+03 
       1.307611673600e-02       2.603372251611e+03 
       1.320473801076e-02       2.608775257077e+03 
       1.333339538517e-02       2.613939063279e+03 
       1.346208889711e-02       2.618866550675e+03 
       1.359081860888e-02       2.623560621389e+03 
       1.371958460674e-02       2.628024141125e+03 
       1.384838700043e-02       2.632259941713e+03 
       1.397722592275e-02       2.636270852596e+03 
       1.410610152923e-02       2.640059633191e+03 
       1.423501399776e-02       2.643629065423e+03 
       1.436396352826e-02       2.646981869213e+03 
       1.449295034248e-02       2.650120757164e+03 
       1.462197468368e-02       2.653048419659e+03 
       1.475103681647e-02       2.655767517922e+03 
       1.477104874446e-02       2.656170559560e+03 
       1.488013702663e-02       2.658280705204e+03 
       1.500927562092e-02       2.660590596389e+03 
       1.513845292695e-02       2.662699804195e+03 
       1.526766929314e-02       2.664610900784e+03 
       1.539692508854e-02       2.666326458415e+03 
       1.552622070287e-02       2.667849016952e+03 
       1.565555654642e-02       2.669181094265e+03 
       1.578493305006e-02       2.670325200124e+03 
       1.591435066525e-02       2.671283811377e+03 
       1.604380986406e-02       2.672059406564e+03 
       1.617331113924e-02       2.672654421654e+03 
       1.630285500426e-02       2.673071287277e+03 
       1.643244199341e-02       2.673312407801e+03 
       1.656207266190e-02       2.673380189868e+03 
       1.669174758601e-02       2.673276988877e+03 
       1.682146736320e-02       2.673005174719e+03 
       1.695123261228e-02       2.672567080056e+03 
       1.708104397359e-02       2.671965022570e+03 
       1.721090210919e-02       2.671201319097e+03 
       1.734080770309e-02       2.670278226240e+03 
       1.747076146144e-02       2.669198046398e+03 
       1.760076411282e-02       2.667963017499e+03 
       1.773081640845e-02       2.666575373475e+03 
       1.786091912253e-02       2.665037334171e+03 
       1.799107305249e-02       2.663351107789e+03 
       1.812127901930e-02       2.661518864395e+03 
       1.825153786782e-02       2.659542794157e+03 
       1.838185046715e-02       2.657425043568e+03 
       1.851221771096e-02       2.655167730620e+03 
       1.864264051789e-02       2.652773007554e+03 
       1.877311983194e-02       2.650242948966e+03 
       1.890365662290e-02       2.647579668020e+03 
       1.903425188675e-02       2.644785224755e+03 
       1.916490664611e-02       2.641861687291e+03 
       1.929562195074e-02       2.638811078870e+03 
       1.942639887797e-02       2.635635454018e+03 
       1.955723853327e-02       2.632336784570e+03 
       1.968814205069e-02       2.628917105505e+03 
       1.981911059347e-02       2.625378371718e+03 
       1.995014535453e-02       2.621722554750e+03 
       2.008124755713e-02       2.617951600655e+03 
       2.021241845539e-02       2.614067456665e+03 
       2.034365933495e-02       2.610072005476e+03 
       2.047497151360e-02       2.605967192049e+03 
       2.060635634192e-02       2.601754877753e+03 
       2.073781520401e-02       2.597436942689e+03 
       2.086934951814e-02       2.593015234514e+03 
       2.100096073751e-02       2.588491619159e+03 
       2.113265035100e-02       2.583867880062e+03 
       2.126441988392e-02       2.579145872568e+03 
       2.139627089885e-02       2.574327365212e+03 
       2.152820499640e-02       2.569414150871e+03 
       2.166022381613e-02       2.564407980806e+03 
       2.179232903740e-02       2.559310618848e+03 
       2.192452238026e-02       2.554123788615e+03 
       2.205680560640e-02       2.548849220727e+03 
       2.218918052012e-02       2.543488607811e+03 
       2.232164896929e-02       2.538043651974e+03 
       2.245421284641e-02       2.532516008321e+03 
       2.258687408966e-02       2.526907347834e+03 
       2.271963468396e-02       2.521219313279e+03 
       2.285249666213e-02       2.515453527845e+03 
       2.298546210602e-02       2.509611614926e+03 
       2.311853314773e-02       2.503695138209e+03 
       2.325171197083e-02       2.497705725884e+03 
       2.338500081160e-02       2.491644910473e+03 
       2.351840196040e-02       2.485514261596e+03 
       2.365191776298e-02       2.479315296873e+03 
       2.378555062190e-02       2.473049558128e+03 
       2.391930299794e-02       2.466718525938e+03 
       2.405317741162e-02       2.460323709927e+03 
       2.418717644471e-02       2.453866572602e+03 
       2.432130274182e-02       2.447348585948e+03 
       2.445555901204e-02       2.440771168154e+03 
       2.458994803062e-02       2.434135768693e+03 
       2.472447264071e-02       2.427443794384e+03 
       2.485913575516e-02       2.420696625432e+03 
       2.499394035840e-02       2.413895668692e+03 
       2.512888950833e-02       2.407042278614e+03 
       2.526398633830e-02       2.400137795954e+03 
       2.539923405920e-02       2.393183563508e+03 
       2.553463596155e-02       2.386180906054e+03 
       2.567019541767e-02       2.379131096090e+03 
       2.580591588401e-02       2.372035464184e+03 
       2.594180090342e-02       2.364895249997e+03 
       2.607785410761e-02       2.357711728862e+03 
       2.621407921967e-02       2.350486119206e+03 
       2.635048005661e-02       2.343219666069e+03 
       2.648706053211e-02       2.335913566329e+03 
       2.662382465926e-02       2.328569009989e+03 
       2.676077655342e-02       2.321187190472e+03 
       2.689792043527e-02       2.313769258184e+03 
       2.703526063382e-02       2.306316354461e+03 
       2.717280158965e-02       2.298829612295e+03 
       2.731054785820e-02       2.291310148838e+03 
       2.744850411326e-02       2.283759060387e+03 
       2.758667515045e-02       2.276177429003e+03 
       2.772506589101e-02       2.268566320458e+03 
       2.786368138554e-02       2.260926786320e+03 
       2.800252681805e-02       2.253259856183e+03 
       2.814160751007e-02       2.245566557006e+03 
       2.828092892493e-02       2.237847887376e+03 
       2.842049667219e-02       2.230104829559e+03 
       2.856031651234e-02       2.222338369059e+03 
       2.870039436151e-02       2.214549436646e+03 
       2.884073629657e-02       2.206738987925e+03 
       2.898134856022e-02       2.198907949280e+03 
       2.912223756650e-02       2.191057221343e+03 
       2.926340990632e-02       2.183187695717e+03 
       2.940487235338e-02       2.175300236926e+03 
       2.954663187022e-02       2.167395723425e+03 
       2.968869561458e-02       2.159474990612e+03 
       2.983107094602e-02       2.151538844585e+03 
       2.997376543277e-02       2.143588134071e+03 
       3.011678685895e-02       2.135623623601e+03 
       3.026014323204e-02       2.127646114591e+03 
       3.040384279069e-02       2.119656336711e+03 
       3.054789401286e-02       2.111655067726e+03 
       3.069230562434e-02       2.103643034635e+03 
       3.083708660765e-02       2.095620916032e+03 
       3.098224621129e-02       2.087589456322e+03 
       3.112779395946e-02       2.079549308765e+03 
       3.127373966220e-02       2.071501155273e+03 
       3.142009342600e-02       2.063445620631e+03 
       3.156686566490e-02       2.055383356432e+03 
       3.171406711212e-02       2.047314979255e+03 
       3.186170883222e-02       2.039241063590e+03 
       3.200980223384e-02       2.031162221915e+03 
       3.215835908309e-02       2.023079008039e+03 
       3.230739151754e-02       2.014991977536e+03 
       3.245691206095e-02       2.006901647446e+03 
       3.260693363868e-02       1.998808547452e+03 
       3.275746959388e-02       1.990713171575e+03 
       3.290853370457e-02       1.982616005791e+03 
       3.306014020146e-02       1.974517507005e+03 
       3.321230378682e-02       1.966418141440e+03 
       3.336503965428e-02       1.958318325781e+03 
       3.351836350963e-02       1.950218457751e+03 
       3.367229159280e-02       1.942118973027e+03 
       3.382684070099e-02       1.934020221029e+03 
       3.398202821305e-02       1.925922579959e+03 
       3.413787211524e-02       1.917826372130e+03 
       3.429439102835e-02       1.909731946758e+03 
       3.445160423642e-02       1.901639606656e+03 
       3.460953171702e-02       1.893549611353e+03 
       3.476819417338e-02       1.885462276988e+03 
       3.492761306821e-02       1.877377830332e+03 
       3.508781065972e-02       1.869296516295e+03 
       3.524881003959e-02       1.861218534995e+03 
       3.541063517338e-02       1.853144090788e+03 
       3.557331094325e-02       1.845073367080e+03 
       3.573686319348e-02       1.837006502735e+03 
       3.590131877865e-02       1.828943644869e+03 
       3.606670561503e-02       1.820884913365e+03 
       3.623305273512e-02       1.812830395647e+03 
       3.640039034579e-02       1.804780170561e+03 
       3.656874989022e-02       1.796734279772e+03 
       3.673816411395e-02       1.788692768657e+03 
       3.690866713534e-02       1.780655642270e+03 
       3.708029452087e-02       1.772622868037e+03 
       3.725308336563e-02       1.764594436080e+03 
       3.742707237941e-02       1.756570267362e+03 
       3.760230197895e-02       1.748550286045e+03 
       3.777881438675e-02       1.740534367160e+03 
       3.795665373715e-02       1.732522385110e+03 
       3.813586619022e-02       1.724514173017e+03 
       3.831650005418e-02       1.716509540398e+03 
       3.849860591716e-02       1.708508268731e+03 
       3.868223678913e-02       1.700510115331e+03 
       3.886744825492e-02       1.692514784059e+03 
       3.905429863944e-02       1.684521986221e+03 
       3.924284918625e-02       1.676531371882e+03 
       3.943316425078e-02       1.668542567660e+03 
       3.962531150958e-02       1.660555164660e+03 
       3.981936218740e-02       1.652568709118e+03 
       4.001539130371e-02       1.644582723649e+03 
       4.021347794085e-02       1.636596685667e+03 
       4.041370553597e-02       1.628610024342e+03 
       4.061616219939e-02       1.620622131993e+03 
       4.082094106229e-02       1.612632355713e+03 
       4.102814065689e-02       1.604639992694e+03 
       4.123786533290e-02       1.596644286934e+03 
       4.145022571436e-02       1.588644427752e+03 
       4.166533920160e-02       1.580639554716e+03 
       4.188333052375e-02       1.572628739552e+03 
       4.210433234794e-02       1.564610993119e+03 
       4.232848595214e-02       1.556585256315e+03 
       4.255594196980e-02       1.548550398256e+03 
       4.278686121546e-02       1.540505207818e+03 
       4.302141560195e-02       1.532448389394e+03 
       4.325978916156e-02       1.524378560333e+03 
       4.350217918529e-02       1.516294236497e+03 
       4.374879749673e-02       1.508193829876e+03 
       4.399987187981e-02       1.500075637183e+03 
       4.425564768275e-02       1.491937832125e+03 
       4.451638962458e-02       1.483778449741e+03 
       4.478238383507e-02       1.475595380770e+03 
       4.505394016427e-02       1.467386348891e+03 
       4.533139480502e-02       1.459148900605e+03 
       4.561511327905e-02       1.450880382823e+03 
       4.590549384786e-02       1.442577923406e+03 
       4.620297142087e-02       1.434238403622e+03 
       4.650802204811e-02       1.425858433455e+03 
       4.682116810268e-02       1.417434311798e+03 
       4.714298428015e-02       1.408961990514e+03 
       4.747410456941e-02       1.400437029754e+03 
       4.781523038354e-02       1.391854535653e+03 
       4.816714008180e-02       1.383209103807e+03 
       4.853070016701e-02       1.374494730034e+03 
       4.890687850972e-02       1.365704721533e+03 
       4.929676003555e-02       1.356831577240e+03 
       4.970156541946e-02       1.347866843477e+03 
       5.012267346758e-02       1.338800937123e+03 
       5.056164804142e-02       1.329622921512e+03 
       5.102027060167e-02       1.320320226754e+03 
       5.150057973137e-02       1.310878288035e+03 
       5.200491935735e-02       1.301280088900e+03 
       5.253599783996e-02       1.291505554754e+03 
       5.309696066052e-02       1.281530767146e+03 
       5.369148011037e-02       1.271326907775e+03 
       5.432386616053e-02       1.260858844490e+03 
       5.499920349788e-02       1.250083204064e+03 
       5.572352037163e-02       1.238945728334e+03 
       5.650399498625e-02       1.227377596512e+03 
       5.734920383146e-02       1.215290305901e+03 
       5.826941181926e-02       1.202568492167e+03 
       5.927689312574e-02       1.189059913784e+03 
