# Matter power spectrum P(k) at redshift z=0
# for k=9.63987e-06 to 1.69422 h/Mpc,
# number of wavenumbers equal to 561
#    1:k (h/Mpc)              2:P (Mpc/h)^3        
       9.639867365113e-06       6.088475269900e+01 
       2.213295590090e-05       1.354297087458e+02 
       3.466613319096e-05       2.085150872820e+02 
       4.727111281150e-05       2.809807800337e+02 
       5.998009169475e-05       3.532754109127e+02 
       7.282602025066e-05       4.257342944197e+02 
       8.584288050479e-05       4.986354053276e+02 
       9.906597575355e-05       5.722874372260e+02 
       1.125322352647e-04       6.468234164529e+02 
       1.262805375826e-04       7.225288101616e+02 
       1.403520560113e-04       7.996409446752e+02 
       1.547906298250e-04       8.789478872031e+02 
       1.696431646451e-04       9.596570646080e+02 
       1.849600651946e-04       1.042770026038e+03 
       2.007957032109e-04       1.128107464449e+03 
       2.172089225919e-04       1.216178637556e+03 
       2.342635827460e-04       1.307313865746e+03 
       2.520291394672e-04       1.401631788805e+03 
       2.705812602856e-04       1.500610127554e+03 
       2.900024679059e-04       1.603108750109e+03 
       3.103828007997e-04       1.712016928388e+03 
       3.318204739450e-04       1.824151071146e+03 
       3.544225148183e-04       1.940607183126e+03 
       3.783053397859e-04       2.067113773790e+03 
       4.035952238744e-04       2.197377946950e+03 
       4.304286026591e-04       2.334770543298e+03 
       4.589521292568e-04       2.485149765427e+03 
       4.893223933945e-04       2.640441404339e+03 
       5.217051954418e-04       2.805611766043e+03 
       5.562742595327e-04       2.979981870363e+03 
       5.932092711219e-04       3.166744427330e+03 
       6.326931412161e-04       3.365644042352e+03 
       6.749084380023e-04       3.575848969464e+03 
       7.200329912073e-04       3.798977416596e+03 
       7.682347661110e-04       4.036098088939e+03 
       8.196662171712e-04       4.286861943747e+03 
       8.744584516871e-04       4.551843047287e+03 
       9.327156393177e-04       4.831220251864e+03 
       9.945101659753e-04       5.124802377397e+03 
       1.059879025082e-03       5.432527558905e+03 
       1.128821851337e-03       5.753561308655e+03 
       1.201300837281e-03       6.087348348434e+03 
       1.277242558009e-03       6.433439378144e+03 
       1.356541506789e-03       6.790249293507e+03 
       1.439064959746e-03       7.157021905962e+03 
       1.524658675286e-03       7.532122872913e+03 
       1.613152907344e-03       7.915444493224e+03 
       1.704368262280e-03       8.304606071714e+03 
       1.798121033310e-03       8.698753940248e+03 
       1.894227773747e-03       9.096730440022e+03 
       1.992508994647e-03       9.497433582310e+03 
       2.092791975547e-03       9.899796570203e+03 
       2.194912750882e-03       1.030288138193e+04 
       2.298717378981e-03       1.070580617336e+04 
       2.404062620006e-03       1.110782454297e+04 
       2.510816150445e-03       1.150815080082e+04 
       2.618856431548e-03       1.190619397143e+04 
       2.728072332755e-03       1.230134218501e+04 
       2.838362592857e-03       1.269318868324e+04 
       2.949635183801e-03       1.308126286238e+04 
       3.061806626156e-03       1.346523972145e+04 
       3.174801291851e-03       1.384475348356e+04 
       3.288550719051e-03       1.421952538449e+04 
       3.402992955625e-03       1.458931122503e+04 
       3.518071941366e-03       1.495389677059e+04 
       3.633736934485e-03       1.531318669434e+04 
       3.749941984629e-03       1.566688564322e+04 
       3.866645452386e-03       1.601512559378e+04 
       3.983809573794e-03       1.635767433225e+04 
       4.101400067403e-03       1.669443996770e+04 
       4.219385780944e-03       1.702539523147e+04 
       4.337738374415e-03       1.735045386813e+04 
       4.456432036343e-03       1.766980091682e+04 
       4.575443230068e-03       1.798316952590e+04 
       4.694750467051e-03       1.829069746801e+04 
       4.814334104399e-03       1.859227725288e+04 
       4.934176164051e-03       1.888803816962e+04 
       5.054260171271e-03       1.917807000682e+04 
       5.174571010336e-03       1.946196866577e+04 
       5.295094795520e-03       1.973173542021e+04 
       5.415818755673e-03       2.000107888320e+04 
       5.536731130881e-03       2.027721941423e+04 
       5.657821079860e-03       2.053371562644e+04 
       5.779078596894e-03       2.079073577217e+04 
       5.900494437245e-03       2.104813931638e+04 
       6.022060050120e-03       2.128923213329e+04 
       6.143767518345e-03       2.153153469276e+04 
       6.265609504018e-03       2.176185511976e+04 
       6.387579199507e-03       2.198668627201e+04 
       6.509670283191e-03       2.221637247972e+04 
       6.631876879462e-03       2.242526411361e+04 
       6.754193522525e-03       2.264681050242e+04 
       6.876615123592e-03       2.285087901132e+04 
       6.999136941136e-03       2.304995049514e+04 
       7.121754553865e-03       2.324408687512e+04 
       7.244463836160e-03       2.344956779048e+04 
       7.367260935719e-03       2.363001611124e+04 
       7.490142253177e-03       2.380967264744e+04 
       7.613104423532e-03       2.400080378099e+04 
       7.736144299167e-03       2.417171220196e+04 
       7.859258934347e-03       2.434396924209e+04 
       7.982445571021e-03       2.450505006205e+04 
       8.105701625823e-03       2.466831667187e+04 
       8.229024678153e-03       2.482084006957e+04 
       8.352412459237e-03       2.496882801047e+04 
       8.475862842083e-03       2.511243970411e+04 
       8.599373832235e-03       2.526943355152e+04 
       8.722943559278e-03       2.540300521188e+04 
       8.846570269004e-03       2.553667627126e+04 
       8.970252316195e-03       2.567045462301e+04 
       9.093988157962e-03       2.578973940166e+04 
       9.217776347601e-03       2.592314847463e+04 
       9.341615528905e-03       2.604183487609e+04 
       9.465504430920e-03       2.615597031331e+04 
       9.589441863076e-03       2.626411543687e+04 
       9.713426710692e-03       2.637624379591e+04 
       9.837457930805e-03       2.648104605844e+04 
       9.961534548307e-03       2.657915724916e+04 
       1.008565565236e-02       2.666815797277e+04 
       1.020982039305e-02       2.677017272736e+04 
       1.033402797834e-02       2.685157270442e+04 
       1.045827767115e-02       2.694572263273e+04 
       1.058256878672e-02       2.702553291036e+04 
       1.070690069014e-02       2.710024538076e+04 
       1.083127279401e-02       2.717206430101e+04 
       1.095568455631e-02       2.725355286034e+04 
       1.108013547841e-02       2.732391788914e+04 
       1.120462510322e-02       2.738881598707e+04 
       1.132915301343e-02       2.744863531748e+04 
       1.145371882993e-02       2.750999356509e+04 
       1.157832221030e-02       2.756582201131e+04 
       1.170296284742e-02       2.761905504793e+04 
       1.182764046815e-02       2.767466542689e+04 
       1.195235483218e-02       2.771777400973e+04 
       1.207710573082e-02       2.775977336983e+04 
       1.220189298606e-02       2.780871706757e+04 
       1.232671644949e-02       2.784751571749e+04 
       1.245157600149e-02       2.788674978503e+04 
       1.257647155035e-02       2.791807153642e+04 
       1.270140303150e-02       2.794736672837e+04 
       1.282637040680e-02       2.798090768477e+04 
       1.295137366387e-02       2.800140955013e+04 
       1.307641281548e-02       2.802938153629e+04 
       1.320148789898e-02       2.805025235039e+04 
       1.332659897581e-02       2.806871856615e+04 
       1.345174613099e-02       2.807802225049e+04 
       1.357692947268e-02       2.809643721840e+04 
       1.370214913181e-02       2.810609591129e+04 
       1.382740526173e-02       2.811071680054e+04 
       1.395269803783e-02       2.812424153792e+04 
       1.407802765731e-02       2.812833298797e+04 
       1.420339433886e-02       2.812949525215e+04 
       1.432879832250e-02       2.812956092155e+04 
       1.445423986929e-02       2.812537798277e+04 
       1.457971926123e-02       2.811931273178e+04 
       1.470523680110e-02       2.811480047998e+04 
       1.483079281229e-02       2.810303588671e+04 
       1.495638763875e-02       2.809129866279e+04 
       1.508202164491e-02       2.808087691302e+04 
       1.520769521559e-02       2.806511319284e+04 
       1.533340875602e-02       2.804421140275e+04 
       1.545916269181e-02       2.802843252863e+04 
       1.558495746894e-02       2.800667869940e+04 
       1.571079355385e-02       2.798279916278e+04 
       1.583667143342e-02       2.795814931628e+04 
       1.596259161508e-02       2.793391081458e+04 
       1.608855462693e-02       2.789997576384e+04 
       1.621456101776e-02       2.787253115898e+04 
       1.634061135728e-02       2.784353083997e+04 
       1.646670623617e-02       2.780955170787e+04 
       1.659284626631e-02       2.777519911480e+04 
       1.671903208092e-02       2.773293578748e+04 
       1.684526433477e-02       2.769888269905e+04 
       1.697154370438e-02       2.765610175951e+04 
       1.709787088826e-02       2.761545590876e+04 
       1.722424660716e-02       2.757373203574e+04 
       1.735067160430e-02       2.752847226881e+04 
       1.747714664570e-02       2.747995528844e+04 
       1.760367252040e-02       2.743438574793e+04 
       1.773025004085e-02       2.738612456945e+04 
       1.785688004320e-02       2.733530524877e+04 
       1.798356338763e-02       2.728413342189e+04 
       1.811030095872e-02       2.723090000542e+04 
       1.823709366586e-02       2.717516187589e+04 
       1.836394244360e-02       2.711824785469e+04 
       1.849084825207e-02       2.705889455341e+04 
       1.861781207742e-02       2.700489260457e+04 
       1.874483493228e-02       2.694045505396e+04 
       1.887191785618e-02       2.688396783023e+04 
       1.899906191606e-02       2.682157775349e+04 
       1.912626820677e-02       2.675764545620e+04 
       1.925353785159e-02       2.669421707371e+04 
       1.938087200274e-02       2.662729076904e+04 
       1.950827184198e-02       2.656195744427e+04 
       1.963573858114e-02       2.649488704569e+04 
       1.976327346274e-02       2.642293802973e+04 
       1.989087776060e-02       2.635411117792e+04 
       2.001855278049e-02       2.628458381924e+04 
       2.014629986075e-02       2.621307700714e+04 
       2.027412037303e-02       2.613935702382e+04 
       2.040201572292e-02       2.606398751906e+04 
       2.052998735073e-02       2.599291141154e+04 
       2.065803673222e-02       2.591644546789e+04 
       2.078616537935e-02       2.584155552110e+04 
       2.091437484113e-02       2.576235614464e+04 
       2.104266670437e-02       2.568528866078e+04 
       2.117104259461e-02       2.560401388990e+04 
       2.129950417692e-02       2.552615981930e+04 
       2.142805315685e-02       2.544564289022e+04 
       2.155669128134e-02       2.536672409584e+04 
       2.168542033968e-02       2.528165828886e+04 
       2.181424216452e-02       2.520041962135e+04 
       2.194315863287e-02       2.511756329276e+04 
       2.207217166716e-02       2.503461371041e+04 
       2.220128323635e-02       2.494923644225e+04 
       2.233049535699e-02       2.486467950607e+04 
       2.245981009445e-02       2.477896823966e+04 
       2.258922956406e-02       2.469302063581e+04 
       2.271875593237e-02       2.460581313133e+04 
       2.284839141840e-02       2.451678295791e+04 
       2.297813829496e-02       2.442921041137e+04 
       2.310799888999e-02       2.434188883795e+04 
       2.323797558798e-02       2.425044821159e+04 
       2.336807083138e-02       2.416188944222e+04 
       2.349828712210e-02       2.407153728238e+04 
       2.362862702304e-02       2.398179107077e+04 
       2.375909315967e-02       2.389045079495e+04 
       2.388968822167e-02       2.379881575496e+04 
       2.402041496461e-02       2.370737617369e+04 
       2.415127621171e-02       2.361386904965e+04 
       2.428227485560e-02       2.352158970397e+04 
       2.441341386023e-02       2.342760418100e+04 
       2.454469626277e-02       2.333528840422e+04 
       2.467612517557e-02       2.324306366794e+04 
       2.480770378827e-02       2.314823337325e+04 
       2.493943536986e-02       2.305297782953e+04 
       2.507132327091e-02       2.296008776694e+04 
       2.520337092585e-02       2.286404227667e+04 
       2.533558185526e-02       2.276918819777e+04 
       2.546795966839e-02       2.267414551431e+04 
       2.560050806556e-02       2.257759280205e+04 
       2.573323084087e-02       2.248238374167e+04 
       2.586613188482e-02       2.238663106989e+04 
       2.599921518710e-02       2.229037975429e+04 
       2.613248483954e-02       2.219275227993e+04 
       2.626594503901e-02       2.209655218158e+04 
       2.639960009061e-02       2.199893748329e+04 
       2.653345441080e-02       2.190327105131e+04 
       2.666751253079e-02       2.180515754469e+04 
       2.680177909995e-02       2.170759349648e+04 
       2.693625888943e-02       2.161160792819e+04 
       2.707095679582e-02       2.151384765784e+04 
       2.720587784508e-02       2.141619322168e+04 
       2.734102719647e-02       2.131835459404e+04 
       2.747641014672e-02       2.121982796008e+04 
       2.761203213438e-02       2.112327774718e+04 
       2.774789874428e-02       2.102492979182e+04 
       2.788401571215e-02       2.092592092384e+04 
       2.802038892952e-02       2.082912531761e+04 
       2.815702444872e-02       2.073114217758e+04 
       2.829392848813e-02       2.063383014728e+04 
       2.843110743759e-02       2.053494065112e+04 
       2.856856786412e-02       2.043784973761e+04 
       2.870631651778e-02       2.033992781593e+04 
       2.884436033783e-02       2.024179595813e+04 
       2.898270645913e-02       2.014387992053e+04 
       2.912136221879e-02       2.004613787545e+04 
       2.926033516317e-02       1.994770836296e+04 
       2.939963305507e-02       1.985064044068e+04 
       2.953926388134e-02       1.975218703828e+04 
       2.967923586074e-02       1.965561402851e+04 
       2.981955745221e-02       1.955743927763e+04 
       2.996023736343e-02       1.946004841027e+04 
       3.010128455986e-02       1.936390045035e+04 
       3.024270827408e-02       1.926674544274e+04 
       3.038451801565e-02       1.916930285308e+04 
       3.052672358137e-02       1.907285947850e+04 
       3.066933506601e-02       1.897488607934e+04 
       3.081236287359e-02       1.887921608397e+04 
       3.095581772912e-02       1.878284278719e+04 
       3.109971069100e-02       1.868645838856e+04 
       3.124405316390e-02       1.858954296086e+04 
       3.138885691236e-02       1.849374078669e+04 
       3.153413407501e-02       1.839759912221e+04 
       3.167989717949e-02       1.830265547550e+04 
       3.182615915817e-02       1.820628417195e+04 
       3.197293336458e-02       1.811077100962e+04 
       3.212023359078e-02       1.801636927789e+04 
       3.226807408549e-02       1.792141427189e+04 
       3.241646957334e-02       1.782643470098e+04 
       3.256543527499e-02       1.773146182104e+04 
       3.271498692833e-02       1.763659868362e+04 
       3.286514081096e-02       1.754319154479e+04 
       3.301591376368e-02       1.744881027861e+04 
       3.316732321547e-02       1.735500494773e+04 
       3.331938720970e-02       1.726174252949e+04 
       3.347212443194e-02       1.716804430385e+04 
       3.362555423923e-02       1.707520209731e+04 
       3.377969669112e-02       1.698236627604e+04 
       3.393457258246e-02       1.688956793914e+04 
       3.409020347818e-02       1.679696189310e+04 
       3.424661175003e-02       1.670503615177e+04 
       3.440382061563e-02       1.661282507278e+04 
       3.456185417984e-02       1.652126021414e+04 
       3.472073747867e-02       1.642895414250e+04 
       3.488049652600e-02       1.633784219207e+04 
       3.504115836315e-02       1.624729900229e+04 
       3.520275111164e-02       1.615607036672e+04 
       3.536530402942e-02       1.606549144178e+04 
       3.552884757071e-02       1.597528347771e+04 
       3.569341344983e-02       1.588552818137e+04 
       3.585903470935e-02       1.579558682356e+04 
       3.602574579279e-02       1.570569397747e+04 
       3.619358262246e-02       1.561631670458e+04 
       3.636258268260e-02       1.552754852764e+04 
       3.653278510854e-02       1.543820874921e+04 
       3.670423078214e-02       1.535014523102e+04 
       3.687696243429e-02       1.526115229967e+04 
       3.705102475487e-02       1.517354467512e+04 
       3.722646451107e-02       1.508572688199e+04 
       3.740333067455e-02       1.499800032986e+04 
       3.758167455858e-02       1.491028791994e+04 
       3.776154996573e-02       1.482349915912e+04 
       3.794301334744e-02       1.473656261877e+04 
       3.812612397639e-02       1.464978713775e+04 
       3.831094413297e-02       1.456292945992e+04 
       3.849753930736e-02       1.447725856497e+04 
       3.868597841857e-02       1.439129787726e+04 
       3.887633405242e-02       1.430515920531e+04 
       3.906868272019e-02       1.421983607626e+04 
       3.926310514035e-02       1.413420492340e+04 
       3.945968654563e-02       1.404910947107e+04 
       3.965851701837e-02       1.396436902128e+04 
       3.985969185718e-02       1.387920890765e+04 
       4.006331197851e-02       1.379513550907e+04 
       4.026948435712e-02       1.371087494844e+04 
       4.047832250996e-02       1.362628666684e+04 
       4.068994702871e-02       1.354274296035e+04 
       4.090448616688e-02       1.345902185603e+04 
       4.112207648817e-02       1.337539522025e+04 
       4.134286358380e-02       1.329177057572e+04 
       4.156700286779e-02       1.320840056030e+04 
       4.179466046035e-02       1.312505118604e+04 
       4.202601417108e-02       1.304231161159e+04 
       4.226125459581e-02       1.295968108173e+04 
       4.250058634271e-02       1.287690689572e+04 
       4.274422940628e-02       1.279437919986e+04 
       4.299242071055e-02       1.271155883639e+04 
       4.324541584685e-02       1.262924454695e+04 
       4.350349103551e-02       1.254685575532e+04 
       4.376694534657e-02       1.246482637678e+04 
       4.403610322047e-02       1.238247362212e+04 
       4.431131733781e-02       1.230019968194e+04 
       4.459297189620e-02       1.221804439143e+04 
       4.488148636392e-02       1.213607091186e+04 
       4.517731979378e-02       1.205395104136e+04 
       4.548097579777e-02       1.197165487399e+04 
       4.579300830405e-02       1.188948121874e+04 
       4.611402824398e-02       1.180734045620e+04 
       4.644471134941e-02       1.172465550333e+04 
       4.678580728061e-02       1.164233230613e+04 
       4.713815035651e-02       1.155960291433e+04 
       4.750267222236e-02       1.147695543671e+04 
       4.788041687102e-02       1.139396200104e+04 
       4.827255853646e-02       1.131048834077e+04 
       4.868042310806e-02       1.122681298439e+04 
       4.910551388040e-02       1.114295641552e+04 
       4.954954266462e-02       1.105846800442e+04 
       5.001446755655e-02       1.097335405367e+04 
       5.050253899895e-02       1.088770586310e+04 
       5.101635620499e-02       1.080139477365e+04 
       5.155893654456e-02       1.071400543178e+04 
       5.213380114076e-02       1.062560792896e+04 
       5.274508067043e-02       1.053623947800e+04 
       5.339764614910e-02       1.044489840388e+04 
       5.409727014371e-02       1.035167491774e+04 
       5.485082401920e-02       1.025600842460e+04 
       5.566651568804e-02       1.015709157905e+04 
       5.655416830299e-02       1.005401462493e+04 
       5.752553038952e-02       9.945417810803e+03 
       5.859458669225e-02       9.829556216580e+03 
