# Matter power spectrum P(k) at redshift z=0
# for k=9.63987e-06 to 1.69422 h/Mpc,
# number of wavenumbers equal to 561
#    1:k (h/Mpc)              2:P (Mpc/h)^3        
       9.639867365113e-06       6.074112252585e+01 
       2.213295590090e-05       1.351144153473e+02 
       3.466613319096e-05       2.080412162330e+02 
       4.727111281150e-05       2.803508167422e+02 
       5.998009169475e-05       3.525209126341e+02 
       7.282602025066e-05       4.248816417576e+02 
       8.584288050479e-05       4.977169281827e+02 
       9.906597575355e-05       5.711547059427e+02 
       1.125322352647e-04       6.456870717399e+02 
       1.262805375826e-04       7.214444303642e+02 
       1.403520560113e-04       7.986743627966e+02 
       1.547906298250e-04       8.763572643888e+02 
       1.696431646451e-04       9.572024076670e+02 
       1.849600651946e-04       1.039772058281e+03 
       2.007957032109e-04       1.125424442896e+03 
       2.172089225919e-04       1.213963252567e+03 
       2.342635827460e-04       1.305745908865e+03 
       2.520291394672e-04       1.401629407970e+03 
       2.705812602856e-04       1.499439186977e+03 
       2.900024679059e-04       1.603153431297e+03 
       3.103828007997e-04       1.707487646466e+03 
       3.318204739450e-04       1.821461566076e+03 
       3.544225148183e-04       1.944182533296e+03 
       3.783053397859e-04       2.064171045888e+03 
       4.035952238744e-04       2.197971380685e+03 
       4.304286026591e-04       2.339825213567e+03 
       4.589521292568e-04       2.478222307203e+03 
       4.893223933945e-04       2.634379159001e+03 
       5.217051954418e-04       2.798985458294e+03 
       5.562742595327e-04       2.976112428312e+03 
       5.932092711219e-04       3.160785020609e+03 
       6.326931412161e-04       3.355986986379e+03 
       6.749084380023e-04       3.566082457517e+03 
       7.200329912073e-04       3.789292173996e+03 
       7.682347661110e-04       4.024867729705e+03 
       8.196662171712e-04       4.275023533546e+03 
       8.744584516871e-04       4.539337060112e+03 
       9.327156393177e-04       4.817802086618e+03 
       9.945101659753e-04       5.110601568574e+03 
       1.059879025082e-03       5.416998837836e+03 
       1.128821851337e-03       5.737337797303e+03 
       1.201300837281e-03       6.070619662955e+03 
       1.277242558009e-03       6.415064776553e+03 
       1.356541506789e-03       6.771104753151e+03 
       1.439064959746e-03       7.136820548837e+03 
       1.524658675286e-03       7.512030164376e+03 
       1.613152907344e-03       7.892880669300e+03 
       1.704368262280e-03       8.280834450789e+03 
       1.798121033310e-03       8.673827166757e+03 
       1.894227773747e-03       9.070676668646e+03 
       1.992508994647e-03       9.470153101385e+03 
       2.092791975547e-03       9.871372884637e+03 
       2.194912750882e-03       1.027328892129e+04 
       2.298717378981e-03       1.067506389543e+04 
       2.404062620006e-03       1.107576687604e+04 
       2.510816150445e-03       1.147490039091e+04 
       2.618856431548e-03       1.187173974737e+04 
       2.728072332755e-03       1.226585121636e+04 
       2.838362592857e-03       1.265655992363e+04 
       2.949635183801e-03       1.304350652576e+04 
       3.061806626156e-03       1.342621650148e+04 
       3.174801291851e-03       1.380446482043e+04 
       3.288550719051e-03       1.417799651634e+04 
       3.402992955625e-03       1.454660718240e+04 
       3.518071941366e-03       1.491011523372e+04 
       3.633736934485e-03       1.526816997630e+04 
       3.749941984629e-03       1.562101343616e+04 
       3.866645452386e-03       1.596795434775e+04 
       3.983809573794e-03       1.630926105295e+04 
       4.101400067403e-03       1.664490211603e+04 
       4.219385780944e-03       1.697477980316e+04 
       4.337738374415e-03       1.729895659510e+04 
       4.456432036343e-03       1.761696234940e+04 
       4.575443230068e-03       1.792934952615e+04 
       4.694750467051e-03       1.823567470192e+04 
       4.814334104399e-03       1.853622324344e+04 
       4.934176164051e-03       1.883095902667e+04 
       5.054260171271e-03       1.912000981449e+04 
       5.174571010336e-03       1.940571117802e+04 
       5.295094795520e-03       1.970328108076e+04 
       5.415818755673e-03       1.998272096625e+04 
       5.536731130881e-03       2.022741778553e+04 
       5.657821079860e-03       2.049907315099e+04 
       5.779078596894e-03       2.075102472812e+04 
       5.900494437245e-03       2.098349503321e+04 
       6.022060050120e-03       2.123577585513e+04 
       6.143767518345e-03       2.146709687553e+04 
       6.265609504018e-03       2.170852636304e+04 
       6.387579199507e-03       2.194505734901e+04 
       6.509670283191e-03       2.215280039717e+04 
       6.631876879462e-03       2.239162087114e+04 
       6.754193522525e-03       2.258403585188e+04 
       6.876615123592e-03       2.280015810213e+04 
       6.999136941136e-03       2.301122761525e+04 
       7.121754553865e-03       2.321730162632e+04 
       7.244463836160e-03       2.338051938775e+04 
       7.367260935719e-03       2.358614974217e+04 
       7.490142253177e-03       2.377769458605e+04 
       7.613104423532e-03       2.392679036337e+04 
       7.736144299167e-03       2.410758376918e+04 
       7.859258934347e-03       2.426994072060e+04 
       7.982445571021e-03       2.444322722068e+04 
       8.105701625823e-03       2.459660438006e+04 
       8.229024678153e-03       2.476023901600e+04 
       8.352412459237e-03       2.491993549045e+04 
       8.475862842083e-03       2.507551268413e+04 
       8.599373832235e-03       2.518570558380e+04 
       8.722943559278e-03       2.533658363932e+04 
       8.846570269004e-03       2.547358221228e+04 
       8.970252316195e-03       2.559664786823e+04 
       9.093988157962e-03       2.574011974506e+04 
       9.217776347601e-03       2.583749379349e+04 
       9.341615528905e-03       2.595613924114e+04 
       9.465504430920e-03       2.607254565174e+04 
       9.589441863076e-03       2.619025943553e+04 
       9.713426710692e-03       2.628601246088e+04 
       9.837457930805e-03       2.638659815223e+04 
       9.961534548307e-03       2.649067691605e+04 
       1.008565565236e-02       2.660393155134e+04 
       1.020982039305e-02       2.667487312133e+04 
       1.033402797834e-02       2.678231470515e+04 
       1.045827767115e-02       2.684846617263e+04 
       1.058256878672e-02       2.693663413930e+04 
       1.070690069014e-02       2.702545448077e+04 
       1.083127279401e-02       2.710994543413e+04 
       1.095568455631e-02       2.716100649983e+04 
       1.108013547841e-02       2.722722738350e+04 
       1.120462510322e-02       2.729557519118e+04 
       1.132915301343e-02       2.736521469304e+04 
       1.145371882993e-02       2.742105042197e+04 
       1.157832221030e-02       2.747950853391e+04 
       1.170296284742e-02       2.753397411964e+04 
       1.182764046815e-02       2.757293529154e+04 
       1.195235483218e-02       2.763137295431e+04 
       1.207710573082e-02       2.768264251870e+04 
       1.220189298606e-02       2.770840232196e+04 
       1.232671644949e-02       2.774831046169e+04 
       1.245157600149e-02       2.777809071408e+04 
       1.257647155035e-02       2.781703643064e+04 
       1.270140303150e-02       2.785183754751e+04 
       1.282637040680e-02       2.786788165979e+04 
       1.295137366387e-02       2.790545283324e+04 
       1.307641281548e-02       2.791724987333e+04 
       1.320148789898e-02       2.793703840490e+04 
       1.332659897581e-02       2.795403914217e+04 
       1.345174613099e-02       2.798410135768e+04 
       1.357692947268e-02       2.798501032259e+04 
       1.370214913181e-02       2.799821482564e+04 
       1.382740526173e-02       2.801518811810e+04 
       1.395269803783e-02       2.800384145881e+04 
       1.407802765731e-02       2.800676845098e+04 
       1.420339433886e-02       2.800891418521e+04 
       1.432879832250e-02       2.800620546401e+04 
       1.445423986929e-02       2.800609468251e+04 
       1.457971926123e-02       2.800322631885e+04 
       1.470523680110e-02       2.798955007526e+04 
       1.483079281229e-02       2.798582686099e+04 
       1.495638763875e-02       2.797517032383e+04 
       1.508202164491e-02       2.795467054516e+04 
       1.520769521559e-02       2.793996933431e+04 
       1.533340875602e-02       2.793055799202e+04 
       1.545916269181e-02       2.790291394542e+04 
       1.558495746894e-02       2.788275689551e+04 
       1.571079355385e-02       2.786128652241e+04 
       1.583667143342e-02       2.783544573091e+04 
       1.596259161508e-02       2.780260856784e+04 
       1.608855462693e-02       2.778630895116e+04 
       1.621456101776e-02       2.774912520163e+04 
       1.634061135728e-02       2.770977810254e+04 
       1.646670623617e-02       2.767633162257e+04 
       1.659284626631e-02       2.763821868231e+04 
       1.671903208092e-02       2.761295267416e+04 
       1.684526433477e-02       2.756323042814e+04 
       1.697154370438e-02       2.752853294112e+04 
       1.709787088826e-02       2.748365367191e+04 
       1.722424660716e-02       2.743613339549e+04 
       1.735067160430e-02       2.739183977660e+04 
       1.747714664570e-02       2.735012119327e+04 
       1.760367252040e-02       2.729680781370e+04 
       1.773025004085e-02       2.724498381935e+04 
       1.785688004320e-02       2.719433098929e+04 
       1.798356338763e-02       2.713998610542e+04 
       1.811030095872e-02       2.708593284013e+04 
       1.823709366586e-02       2.703321893027e+04 
       1.836394244360e-02       2.697895904575e+04 
       1.849084825207e-02       2.692603006922e+04 
       1.861781207742e-02       2.685661687205e+04 
       1.874483493228e-02       2.680726538714e+04 
       1.887191785618e-02       2.673551473010e+04 
       1.899906191606e-02       2.667349487489e+04 
       1.912626820677e-02       2.661119003723e+04 
       1.925353785159e-02       2.654394745677e+04 
       1.938087200274e-02       2.648115323823e+04 
       1.950827184198e-02       2.641103780433e+04 
       1.963573858114e-02       2.634137417301e+04 
       1.976327346274e-02       2.627953473144e+04 
       1.989087776060e-02       2.620712878179e+04 
       2.001855278049e-02       2.613303515085e+04 
       2.014629986075e-02       2.606024781653e+04 
       2.027412037303e-02       2.598944434036e+04 
       2.040201572292e-02       2.591931015333e+04 
       2.052998735073e-02       2.583627039528e+04 
       2.065803673222e-02       2.576270922181e+04 
       2.078616537935e-02       2.568266331989e+04 
       2.091437484113e-02       2.560970912485e+04 
       2.104266670437e-02       2.552911893404e+04 
       2.117104259461e-02       2.545552785995e+04 
       2.129950417692e-02       2.537148685255e+04 
       2.142805315685e-02       2.529097805382e+04 
       2.155669128134e-02       2.520436210822e+04 
       2.168542033968e-02       2.512948387665e+04 
       2.181424216452e-02       2.504341230276e+04 
       2.194315863287e-02       2.495881113090e+04 
       2.207217166716e-02       2.487219696867e+04 
       2.220128323635e-02       2.478902249908e+04 
       2.233049535699e-02       2.470185554016e+04 
       2.245981009445e-02       2.461528255707e+04 
       2.258922956406e-02       2.452727678693e+04 
       2.271875593237e-02       2.444027026305e+04 
       2.284839141840e-02       2.435558759499e+04 
       2.297813829496e-02       2.426575572613e+04 
       2.310799888999e-02       2.417357213244e+04 
       2.323797558798e-02       2.408919629476e+04 
       2.336807083138e-02       2.399658424162e+04 
       2.349828712210e-02       2.390649570290e+04 
       2.362862702304e-02       2.381348373326e+04 
       2.375909315967e-02       2.372266172003e+04 
       2.388968822167e-02       2.363110118265e+04 
       2.402041496461e-02       2.353774643895e+04 
       2.415127621171e-02       2.344781651395e+04 
       2.428227485560e-02       2.335379130238e+04 
       2.441341386023e-02       2.326250831979e+04 
       2.454469626277e-02       2.316622163705e+04 
       2.467612517557e-02       2.306849435063e+04 
       2.480770378827e-02       2.297604800771e+04 
       2.493943536986e-02       2.288316327934e+04 
       2.507132327091e-02       2.278403750551e+04 
       2.520337092585e-02       2.269121155450e+04 
       2.533558185526e-02       2.259480011032e+04 
       2.546795966839e-02       2.249797936122e+04 
       2.560050806556e-02       2.240382684244e+04 
       2.573323084087e-02       2.230586598616e+04 
       2.586613188482e-02       2.220844689450e+04 
       2.599921518710e-02       2.211153470358e+04 
       2.613248483954e-02       2.201712420848e+04 
       2.626594503901e-02       2.191891151068e+04 
       2.639960009061e-02       2.182336383337e+04 
       2.653345441080e-02       2.172290244645e+04 
       2.666751253079e-02       2.162758190986e+04 
       2.680177909995e-02       2.153057604782e+04 
       2.693625888943e-02       2.142961541984e+04 
       2.707095679582e-02       2.133234253237e+04 
       2.720587784508e-02       2.123454954013e+04 
       2.734102719647e-02       2.113689458082e+04 
       2.747641014672e-02       2.104059959263e+04 
       2.761203213438e-02       2.093958655472e+04 
       2.774789874428e-02       2.084251432631e+04 
       2.788401571215e-02       2.074684056995e+04 
       2.802038892952e-02       2.064601581555e+04 
       2.815702444872e-02       2.054783580193e+04 
       2.829392848813e-02       2.044808873063e+04 
       2.843110743759e-02       2.035195061739e+04 
       2.856856786412e-02       2.025175063192e+04 
       2.870631651778e-02       2.015350181884e+04 
       2.884436033783e-02       2.005581990383e+04 
       2.898270645913e-02       1.995778394631e+04 
       2.912136221879e-02       1.985948664339e+04 
       2.926033516317e-02       1.976292493548e+04 
       2.939963305507e-02       1.966347435488e+04 
       2.953926388134e-02       1.956739882613e+04 
       2.967923586074e-02       1.946731281472e+04 
       2.981955745221e-02       1.937113311985e+04 
       2.996023736343e-02       1.927347845801e+04 
       3.010128455986e-02       1.917334361712e+04 
       3.024270827408e-02       1.907583535444e+04 
       3.038451801565e-02       1.897936498227e+04 
       3.052672358137e-02       1.888100453715e+04 
       3.066933506601e-02       1.878653272137e+04 
       3.081236287359e-02       1.868727252307e+04 
       3.095581772912e-02       1.859006288251e+04 
       3.109971069100e-02       1.849335303799e+04 
       3.124405316390e-02       1.839834883982e+04 
       3.138885691236e-02       1.830132884911e+04 
       3.153413407501e-02       1.820561843493e+04 
       3.167989717949e-02       1.810771908993e+04 
       3.182615915817e-02       1.801362827637e+04 
       3.197293336458e-02       1.791818598251e+04 
       3.212023359078e-02       1.782081292514e+04 
       3.226807408549e-02       1.772530850117e+04 
       3.241646957334e-02       1.763048423925e+04 
       3.256543527499e-02       1.753628869511e+04 
       3.271498692833e-02       1.744248296890e+04 
       3.286514081096e-02       1.734606018464e+04 
       3.301591376368e-02       1.725250926116e+04 
       3.316732321547e-02       1.715835005996e+04 
       3.331938720970e-02       1.706365553090e+04 
       3.347212443194e-02       1.697065465440e+04 
       3.362555423923e-02       1.687644837518e+04 
       3.377969669112e-02       1.678294106056e+04 
       3.393457258246e-02       1.669009591375e+04 
       3.409020347818e-02       1.659755848711e+04 
       3.424661175003e-02       1.650422541712e+04 
       3.440382061563e-02       1.641230669453e+04 
       3.456185417984e-02       1.631968328030e+04 
       3.472073747867e-02       1.622950967891e+04 
       3.488049652600e-02       1.613741450466e+04 
       3.504115836315e-02       1.604481179330e+04 
       3.520275111164e-02       1.595453429074e+04 
       3.536530402942e-02       1.586359355223e+04 
       3.552884757071e-02       1.577258917672e+04 
       3.569341344983e-02       1.568137319222e+04 
       3.585903470935e-02       1.559135449716e+04 
       3.602574579279e-02       1.550202197756e+04 
       3.619358262246e-02       1.541231946702e+04 
       3.636258268260e-02       1.532203804734e+04 
       3.653278510854e-02       1.523382360071e+04 
       3.670423078214e-02       1.514354237928e+04 
       3.687696243429e-02       1.505612681447e+04 
       3.705102475487e-02       1.496638583233e+04 
       3.722646451107e-02       1.487789505588e+04 
       3.740333067455e-02       1.478997515596e+04 
       3.758167455858e-02       1.470279151363e+04 
       3.776154996573e-02       1.461429797649e+04 
       3.794301334744e-02       1.452689171249e+04 
       3.812612397639e-02       1.443988081422e+04 
       3.831094413297e-02       1.435378554409e+04 
       3.849753930736e-02       1.426576817437e+04 
       3.868597841857e-02       1.417912430169e+04 
       3.887633405242e-02       1.409359254070e+04 
       3.906868272019e-02       1.400693245895e+04 
       3.926310514035e-02       1.392164885872e+04 
       3.945968654563e-02       1.383584921017e+04 
       3.965851701837e-02       1.374991537834e+04 
       3.985969185718e-02       1.366555688775e+04 
       4.006331197851e-02       1.357941734766e+04 
       4.026948435712e-02       1.349430354330e+04 
       4.047832250996e-02       1.341051454430e+04 
       4.068994702871e-02       1.332497477838e+04 
       4.090448616688e-02       1.324039677168e+04 
       4.112207648817e-02       1.315613554646e+04 
       4.134286358380e-02       1.307237929021e+04 
       4.156700286779e-02       1.298853911016e+04 
       4.179466046035e-02       1.290511664897e+04 
       4.202601417108e-02       1.282077450002e+04 
       4.226125459581e-02       1.273659528746e+04 
       4.250058634271e-02       1.265310930965e+04 
       4.274422940628e-02       1.256941679993e+04 
       4.299242071055e-02       1.248667503035e+04 
       4.324541584685e-02       1.240308663527e+04 
       4.350349103551e-02       1.231989241784e+04 
       4.376694534657e-02       1.223609084248e+04 
       4.403610322047e-02       1.215314331905e+04 
       4.431131733781e-02       1.207011448978e+04 
       4.459297189620e-02       1.198686494669e+04 
       4.488148636392e-02       1.190320260969e+04 
       4.517731979378e-02       1.181978480208e+04 
       4.548097579777e-02       1.173662325702e+04 
       4.579300830405e-02       1.165297105560e+04 
       4.611402824398e-02       1.156896410764e+04 
       4.644471134941e-02       1.148577328746e+04 
       4.678580728061e-02       1.140132242128e+04 
       4.713815035651e-02       1.131718193448e+04 
       4.750267222236e-02       1.123217778118e+04 
       4.788041687102e-02       1.114710697033e+04 
       4.827255853646e-02       1.106211347950e+04 
       4.868042310806e-02       1.097641581446e+04 
       4.910551388040e-02       1.088977538180e+04 
       4.954954266462e-02       1.080293810435e+04 
       5.001446755655e-02       1.071561766626e+04 
       5.050253899895e-02       1.062728849622e+04 
       5.101635620499e-02       1.053783757247e+04 
       5.155893654456e-02       1.044767067643e+04 
       5.213380114076e-02       1.035603991589e+04 
       5.274508067043e-02       1.026210166075e+04 
       5.339764614910e-02       1.016703520515e+04 
       5.409727014371e-02       1.006937529047e+04 
       5.485082401920e-02       9.968653434647e+03 
       5.566651568804e-02       9.864349923794e+03 
       5.655416830299e-02       9.755363391319e+03 
       5.752553038952e-02       9.640406635840e+03 
       5.859458669225e-02       9.517395773921e+03 
