# dimensionless total [l(l+1)/2pi] C_l's
# for l=2 to 2500, i.e. number of multipoles equal to 2499
#
# -> if you prefer output in CAMB/HealPix/LensPix units/order, set 'format' to 'camb' in input file
# -> if you don't want to see such a header, set 'headers' to 'no' in input file
# -> for CMB lensing (phi), these are C_l^phi-phi for the lensing potential.
#    Remember the conversion factors:
#    C_l^dd (deflection) = l(l+1) C_l^phi-phi
#    C_l^gg (shear/convergence) = 1/4 (l(l+1))^2 C_l^phi-phi
#
# 1:l     2:TT                     3:EE                     4:TE                     5:BB                     6:phiphi                 7:TPhi                   8:Ephi               
    2       2.686755972466e-10       5.785159825707e-15       5.892897610014e-13       0.000000000000e+00       1.096443296398e-08       1.001383306808e-09      -1.960087480019e-12 
    3       2.268867922008e-10       7.276162200053e-15       6.423089919720e-13       0.000000000000e+00       6.651101962117e-09       6.742184104879e-10      -1.370893286848e-12 
    4       1.974276108247e-10       6.174233387221e-15       5.695845724688e-13       0.000000000000e+00       4.568049186553e-09       4.911741430721e-10      -8.302204983890e-13 
    5       1.772326599186e-10       4.020628869672e-15       4.475948125487e-13       0.000000000000e+00       3.370969248320e-09       3.759750353292e-10      -4.317573729947e-13 
    6       1.631550744982e-10       2.164417427238e-15       3.252052542009e-13       0.000000000000e+00       2.604757738225e-09       2.975336861995e-10      -1.616191323665e-13 
    7       1.531785588455e-10       1.096815146764e-15       2.286609212784e-13       0.000000000000e+00       2.079591497740e-09       2.412656228198e-10       4.753994719197e-15 
    8       1.460203572925e-10       6.565292080849e-16       1.636647469991e-13       0.000000000000e+00       1.701220857518e-09       1.993836266814e-10       8.605236024527e-14 
    9       1.408859944866e-10       5.051880020094e-16       1.252596461711e-13       0.000000000000e+00       1.418102496211e-09       1.673023214426e-10       1.021308634015e-13 
   10       1.372199177531e-10       4.259717230774e-16       1.066286059695e-13       0.000000000000e+00       1.200104039137e-09       1.421642799590e-10       7.638487084729e-14 
   11       1.347245834929e-10       3.605131728728e-16       1.016360355751e-13       0.000000000000e+00       1.013231983217e-09       1.224380186228e-10       3.275249723914e-14 
   12       1.330786139044e-10       3.189272100963e-16       1.046364454934e-13       0.000000000000e+00       8.775881570419e-10       1.059534387399e-10      -1.068534092763e-14 
   13       1.320605798263e-10       3.054308852375e-16       1.111658075277e-13       0.000000000000e+00       7.669536709758e-10       9.230363494127e-11      -4.197140787940e-14 
   14       1.316184681302e-10       3.058310129700e-16       1.184309688833e-13       0.000000000000e+00       6.755057238915e-10       8.099599936101e-11      -5.652947653788e-14 
   15       1.316302934511e-10       3.075172721332e-16       1.250686305315e-13       0.000000000000e+00       5.990673934968e-10       7.156333427116e-11      -5.590206755699e-14 
   16       1.319576230563e-10       3.122466113639e-16       1.309032729215e-13       0.000000000000e+00       5.343323161189e-10       6.337466667818e-11      -4.540924413097e-14 
   17       1.325966899254e-10       3.306677651713e-16       1.364622482081e-13       0.000000000000e+00       4.791897359211e-10       5.643705443668e-11      -3.091399370530e-14 
   18       1.334817361624e-10       3.711801262358e-16       1.425061191729e-13       0.000000000000e+00       4.315945969070e-10       5.049363720983e-11      -1.798261294492e-14 
   19       1.346043049378e-10       4.341878233742e-16       1.495682714307e-13       0.000000000000e+00       3.906993779753e-10       4.537737125137e-11      -9.300946092362e-15 
   20       1.359045647854e-10       5.165950580469e-16       1.580249459879e-13       0.000000000000e+00       3.549237940331e-10       4.086507758838e-11      -6.309533767830e-15 
   21       1.373686326554e-10       6.165211565747e-16       1.677419162356e-13       0.000000000000e+00       3.236528215324e-10       3.692164846824e-11      -8.045692903790e-15 
   22       1.389579086186e-10       7.318686092264e-16       1.782639019110e-13       0.000000000000e+00       2.960615114755e-10       3.350015543654e-11      -1.226006390187e-14 
   23       1.406788212016e-10       8.612470238059e-16       1.889575719848e-13       0.000000000000e+00       2.717206318206e-10       3.050546012158e-11      -1.693868568190e-14 
   24       1.425218358787e-10       1.003367846763e-15       1.990822383035e-13       0.000000000000e+00       2.500221782308e-10       2.779787341757e-11      -2.006223309220e-14 
   25       1.444715237494e-10       1.158183494211e-15       2.082693224169e-13       0.000000000000e+00       2.306877961525e-10       2.537726729611e-11      -2.094309697096e-14 
   26       1.464941922085e-10       1.326423991311e-15       2.162968312877e-13       0.000000000000e+00       2.133477011842e-10       2.325602966800e-11      -1.950827785653e-14 
   27       1.485959515560e-10       1.510721172738e-15       2.231729877612e-13       0.000000000000e+00       1.977728137091e-10       2.138216354928e-11      -1.654158468585e-14 
   28       1.507817007308e-10       1.714299348193e-15       2.290161838040e-13       0.000000000000e+00       1.836708292415e-10       1.967385383682e-11      -1.318123224627e-14 
   29       1.530543454615e-10       1.938757510473e-15       2.339715719014e-13       0.000000000000e+00       1.709558399477e-10       1.812156564061e-11      -1.011662082982e-14 
   30       1.553991209278e-10       2.185188475133e-15       2.382412917317e-13       0.000000000000e+00       1.594774534052e-10       1.672582881406e-11      -8.004581084423e-15 
   31       1.577884776964e-10       2.454562416498e-15       2.420205005104e-13       0.000000000000e+00       1.489842007657e-10       1.547445206491e-11      -7.418732005642e-15 
   32       1.602254948121e-10       2.747449231865e-15       2.452221470066e-13       0.000000000000e+00       1.394124490120e-10       1.435538514073e-11      -8.052052923075e-15 
   33       1.627136672946e-10       3.064167290398e-15       2.476460509151e-13       0.000000000000e+00       1.306857300902e-10       1.334608525642e-11      -9.197170335287e-15 
   34       1.652488139938e-10       3.404986106416e-15       2.490722123205e-13       0.000000000000e+00       1.226711033231e-10       1.241769996564e-11      -1.010041035173e-14 
   35       1.678351590853e-10       3.770638735772e-15       2.493508411184e-13       0.000000000000e+00       1.153208238845e-10       1.156612950681e-11      -1.053287647068e-14 
   36       1.704729425334e-10       4.161979386642e-15       2.483408765505e-13       0.000000000000e+00       1.085690028098e-10       1.079054948448e-11      -1.041236279313e-14 
   37       1.731568165525e-10       4.579847283693e-15       2.459165869085e-13       0.000000000000e+00       1.023195732864e-10       1.008620931766e-11      -9.702637507209e-15 
   38       1.758883659566e-10       5.025068581356e-15       2.420753133557e-13       0.000000000000e+00       9.655212025136e-11       9.449603770266e-12      -8.583611220425e-15 
   39       1.786663485119e-10       5.498452164511e-15       2.368664325029e-13       0.000000000000e+00       9.124450794991e-11       8.874258505659e-12      -7.342189935512e-15 
   40       1.814824448517e-10       6.000786960729e-15       2.303645293342e-13       0.000000000000e+00       8.634081105238e-11       8.348836674768e-12      -6.332199196878e-15 
   41       1.843255515930e-10       6.532826421171e-15       2.226429761841e-13       0.000000000000e+00       8.176987003920e-11       7.860477467372e-12      -5.877298733472e-15 
   42       1.871980288731e-10       7.095240008772e-15       2.136805492945e-13       0.000000000000e+00       7.751523815321e-11       7.407073864876e-12      -5.931496733192e-15 
   43       1.901035604944e-10       7.688643032092e-15       2.034270567150e-13       0.000000000000e+00       7.356309210893e-11       6.988323047220e-12      -6.315276654034e-15 
   44       1.930422633958e-10       8.313606471929e-15       1.918283592546e-13       0.000000000000e+00       6.988130736731e-11       6.602197656679e-12      -6.804729059629e-15 
   45       1.960124641973e-10       8.970668647500e-15       1.788286320579e-13       0.000000000000e+00       6.643031949392e-11       6.245700783000e-12      -7.183800957783e-15 
   46       1.990175077789e-10       9.660380670962e-15       1.643787976575e-13       0.000000000000e+00       6.320297823693e-11       5.917730786144e-12      -7.426075637983e-15 
   47       2.020603738033e-10       1.038327003660e-14       1.484300062317e-13       0.000000000000e+00       6.019415550347e-11       5.616834219630e-12      -7.562714667477e-15 
   48       2.051414883133e-10       1.113982566379e-14       1.309310344217e-13       0.000000000000e+00       5.738876216710e-11       5.340298388261e-12      -7.632644847318e-15 
   49       2.082584878735e-10       1.193049605066e-14       1.118280788229e-13       0.000000000000e+00       5.476101471652e-11       5.084062571299e-12      -7.683005977281e-15 
   50       2.114076541046e-10       1.275567202075e-14       9.107036184206e-14       0.000000000000e+00       5.228190662237e-11       4.843778843058e-12      -7.759785650064e-15 
   51       2.145892235240e-10       1.361563372567e-14       6.862922224313e-14       0.000000000000e+00       4.994571465025e-11       4.618539959502e-12      -7.875687953428e-15 
   52       2.178031113072e-10       1.451058606536e-14       4.448384955160e-14       0.000000000000e+00       4.774941974404e-11       4.408009908141e-12      -8.034317079573e-15 
   53       2.210472133459e-10       1.544067032729e-14       1.861599001636e-14       0.000000000000e+00       4.568479213310e-11       4.211328895350e-12      -8.239214325598e-15 
   54       2.243172489976e-10       1.640596161506e-14      -8.989986375824e-15       0.000000000000e+00       4.373804408529e-11       4.027078668244e-12      -8.493844071560e-15 
   55       2.276087746391e-10       1.740652143772e-14      -3.834750336942e-14       0.000000000000e+00       4.189385948934e-11       3.853691492890e-12      -8.798387550492e-15 
   56       2.309241703373e-10       1.844257666719e-14      -6.946930581723e-14       0.000000000000e+00       4.014945035511e-11       3.690875508840e-12      -9.139223560006e-15 
   57       2.342671133801e-10       1.951438053371e-14      -1.023661943554e-13       0.000000000000e+00       3.850338401948e-11       3.538482721807e-12      -9.496809973094e-15 
   58       2.376404884453e-10       2.062216094703e-14      -1.370465270724e-13       0.000000000000e+00       3.695133938456e-11       3.396079356174e-12      -9.848511610485e-15 
   59       2.410463149261e-10       2.176612007414e-14      -1.735161713709e-13       0.000000000000e+00       3.548593019658e-11       3.262928462180e-12      -1.016846184696e-14 
   60       2.444856742573e-10       2.294643391699e-14      -2.117784558288e-13       0.000000000000e+00       3.409652832478e-11       3.137972523112e-12      -1.042742421768e-14 
   61       2.479590736752e-10       2.416316541646e-14      -2.518343981848e-13       0.000000000000e+00       3.277212588355e-11       3.020099402434e-12      -1.059937863623e-14 
   62       2.514677973211e-10       2.541598192729e-14      -2.936835579977e-13       0.000000000000e+00       3.151107211463e-11       2.909049289479e-12      -1.068332066880e-14 
   63       2.550127308263e-10       2.670437328941e-14      -3.373232908239e-13       0.000000000000e+00       3.031321840429e-11       2.804681390057e-12      -1.068613202732e-14 
   64       2.585938939773e-10       2.802772960242e-14      -3.827484503845e-13       0.000000000000e+00       2.917699358654e-11       2.706700314032e-12      -1.061636122075e-14 
   65       2.622103818895e-10       2.938533805952e-14      -4.299513491881e-13       0.000000000000e+00       2.809932364224e-11       2.614647672669e-12      -1.048429852817e-14 
   66       2.658603061808e-10       3.077637978153e-14      -4.789217191535e-13       0.000000000000e+00       2.707555139819e-11       2.527893675983e-12      -1.030205097200e-14 
   67       2.695407361449e-10       3.219992665082e-14      -5.296466722323e-13       0.000000000000e+00       2.609935622620e-11       2.445628730097e-12      -1.008361729112e-14 
   68       2.732488337287e-10       3.365506392088e-14      -5.821113242598e-13       0.000000000000e+00       2.516440027279e-11       2.367057078950e-12      -9.842913016786e-15 
   69       2.769856570101e-10       3.514129397136e-14      -6.363009013158e-13       0.000000000000e+00       2.426983399256e-11       2.292042074587e-12      -9.587213425059e-15 
   70       2.807530252676e-10       3.665820905274e-14      -6.921989913903e-13       0.000000000000e+00       2.341576705039e-11       2.220577161480e-12      -9.322510534387e-15 
   71       2.845523655797e-10       3.820537279917e-14      -7.497868969051e-13       0.000000000000e+00       2.260160499953e-11       2.152592223486e-12      -9.055467588158e-15 
   72       2.883846845301e-10       3.978232027920e-14      -8.090436122986e-13       0.000000000000e+00       2.182601313747e-11       2.087950348571e-12      -8.793441600828e-15 
   73       2.922505399135e-10       4.138855804654e-14      -8.699458016114e-13       0.000000000000e+00       2.108688036183e-11       2.026444593538e-12      -8.544505904040e-15 
   74       2.961500124415e-10       4.302356419076e-14      -9.324677760711e-13       0.000000000000e+00       2.038128302624e-11       1.967794748754e-12      -8.317472692746e-15 
   75       3.000826774478e-10       4.468678838807e-14      -9.965814716771e-13       0.000000000000e+00       1.970544879620e-11       1.911644102873e-12      -8.121915571331e-15 
   76       3.040480142818e-10       4.637758948442e-14      -1.062257324943e-12       0.000000000000e+00       1.905567642020e-11       1.857645159122e-12      -7.965717227047e-15 
   77       3.080467832222e-10       4.809503499253e-14      -1.129467134039e-12       0.000000000000e+00       1.843136857647e-11       1.805741981335e-12      -7.847146332255e-15 
   78       3.120798494120e-10       4.983806495449e-14      -1.198181681093e-12       0.000000000000e+00       1.783248898339e-11       1.755933696451e-12      -7.761370076227e-15 
   79       3.161477484380e-10       5.160554995541e-14      -1.268369876386e-12       0.000000000000e+00       1.725863927319e-11       1.708188722164e-12      -7.702773115693e-15 
   80       3.202506670124e-10       5.339628989321e-14      -1.339998754357e-12       0.000000000000e+00       1.670904244969e-11       1.662443355677e-12      -7.664929371691e-15 
   81       3.243884236533e-10       5.520901274838e-14      -1.413033469601e-12       0.000000000000e+00       1.618252634596e-11       1.618600362450e-12      -7.640573826422e-15 
   82       3.285604493651e-10       5.704237335381e-14      -1.487437292876e-12       0.000000000000e+00       1.567750708201e-11       1.576527564950e-12      -7.621574320099e-15 
   83       3.327657683197e-10       5.889495216454e-14      -1.563171607103e-12       0.000000000000e+00       1.519197252254e-11       1.536056431400e-12      -7.598903347804e-15 
   84       3.370034115856e-10       6.076531256747e-14      -1.640196125028e-12       0.000000000000e+00       1.472396440423e-11       1.497023029517e-12      -7.564654222273e-15 
   85       3.412737794394e-10       6.265218642135e-14      -1.718469592423e-12       0.000000000000e+00       1.427315278713e-11       1.459401779733e-12      -7.518535371598e-15 
   86       3.455774705257e-10       6.455431716289e-14      -1.797949194674e-12       0.000000000000e+00       1.383949349807e-11       1.423191391062e-12      -7.462405955173e-15 
   87       3.499148570253e-10       6.647040375886e-14      -1.878590345218e-12       0.000000000000e+00       1.342274462681e-11       1.388373778662e-12      -7.398333286501e-15 
   88       3.542860726138e-10       6.839910045981e-14      -1.960346685273e-12       0.000000000000e+00       1.302245836472e-11       1.354913364600e-12      -7.328598989143e-15 
   89       3.586910004207e-10       7.033901655366e-14      -2.043170083562e-12       0.000000000000e+00       1.263797284352e-11       1.322756378618e-12      -7.255705152659e-15 
   90       3.631292609878e-10       7.228871611937e-14      -2.127010636042e-12       0.000000000000e+00       1.226840397397e-11       1.291830158900e-12      -7.182380488554e-15 
   91       3.676002002288e-10       7.424671778061e-14      -2.211816665636e-12       0.000000000000e+00       1.191263728454e-11       1.262042452840e-12      -7.111586486222e-15 
   92       3.721028773878e-10       7.621149445938e-14      -2.297534721954e-12       0.000000000000e+00       1.156931976013e-11       1.233280717806e-12      -7.046523568886e-15 
   93       3.766363879700e-10       7.818149543201e-14      -2.384110210649e-12       0.000000000000e+00       1.123717788904e-11       1.205437918303e-12      -6.989902416127e-15 
   94       3.812009142471e-10       8.015521682676e-14      -2.471489390335e-12       0.000000000000e+00       1.091604424829e-11       1.178495874432e-12      -6.941619196600e-15 
   95       3.857968112201e-10       8.213114132294e-14      -2.559617676897e-12       0.000000000000e+00       1.060597094578e-11       1.152453214563e-12      -6.900740444955e-15 
   96       3.904242783826e-10       8.410771685227e-14      -2.648439048889e-12       0.000000000000e+00       1.030691353513e-11       1.127299664861e-12      -6.866202862875e-15 
   97       3.950833522770e-10       8.608335665866e-14      -2.737896055905e-12       0.000000000000e+00       1.001872733218e-11       1.103015713762e-12      -6.836809388082e-15 
   98       3.997738990518e-10       8.805643935806e-14      -2.827929826946e-12       0.000000000000e+00       9.741163731473e-12       1.079572276456e-12      -6.811225263340e-15 
   99       4.044956070186e-10       9.002530899818e-14      -2.918480078796e-12       0.000000000000e+00       9.473866522799e-12       1.056930359363e-12      -6.787974105467e-15 
  100       4.092479792092e-10       9.198827511832e-14      -3.009485124387e-12       0.000000000000e+00       9.216368207673e-12       1.035040724608e-12      -6.765433974335e-15 
  101       4.140303259324e-10       9.394361280916e-14      -3.100881881174e-12       0.000000000000e+00       8.968086315852e-12       1.013843554504e-12      -6.741833441880e-15 
  102       4.188417573309e-10       9.588956277253e-14      -3.192605879502e-12       0.000000000000e+00       8.728319721839e-12       9.932681160287e-13      -6.715247661108e-15 
  103       4.236811759385e-10       9.782433138122e-14      -3.284591270981e-12       0.000000000000e+00       8.496244961394e-12       9.732324253002e-13      -6.683594435099e-15 
  104       4.285475282944e-10       9.974613508220e-14      -3.376771598971e-12       0.000000000000e+00       8.271101322048e-12       9.536629214441e-13      -6.645119614931e-15 
  105       4.334406145254e-10       1.016533403088e-13      -3.469082210570e-12       0.000000000000e+00       8.052782523820e-12       9.345572375963e-13      -6.599936436804e-15 
  106       4.383603747598e-10       1.035443426682e-13      -3.561458187573e-12       0.000000000000e+00       7.841318470944e-12       9.159293233121e-13      -6.548687766460e-15 
  107       4.433066352952e-10       1.054175248260e-13      -3.653833629994e-12       0.000000000000e+00       7.636692025617e-12       8.977900781400e-13      -6.492076767992e-15 
