# dimensionless total [l(l+1)/2pi] C_l's
# for l=2 to 2500, i.e. number of multipoles equal to 2499
#
# -> if you prefer output in CAMB/HealPix/LensPix units/order, set 'format' to 'camb' in input file
# -> if you don't want to see such a header, set 'headers' to 'no' in input file
# -> for CMB lensing (phi), these are C_l^phi-phi for the lensing potential.
#    Remember the conversion factors:
#    C_l^dd (deflection) = l(l+1) C_l^phi-phi
#    C_l^gg (shear/convergence) = 1/4 (l(l+1))^2 C_l^phi-phi
#
# 1:l     2:TT                     3:EE                     4:TE                     5:BB                     6:phiphi                 7:TPhi                   8:Ephi               
    2       1.576633484183e-10       4.592621813654e-15       3.955690383622e-13       0.000000000000e+00       8.926330530473e-09       5.338337171275e-10      -1.986646979808e-12 
    3       1.466428203593e-10       5.885597313170e-15       4.431211976916e-13       0.000000000000e+00       5.529317245020e-09       3.752291439306e-10      -1.491847186811e-12 
    4       1.371536591661e-10       5.083920419248e-15       4.113498941021e-13       0.000000000000e+00       3.845250570076e-09       2.822057024610e-10      -9.677414996832e-13 
    5       1.302490825005e-10       3.383818017894e-15       3.469666683368e-13       0.000000000000e+00       2.866285919346e-09       2.217398121332e-10      -5.326178583165e-13 
    6       1.255043843527e-10       1.881473648337e-15       2.758947465438e-13       0.000000000000e+00       2.234531266429e-09       1.795843737841e-10      -2.156426435480e-13 
    7       1.223318477205e-10       1.001996726318e-15       2.131052632681e-13       0.000000000000e+00       1.799870527758e-09       1.487775613445e-10      -1.525823462610e-14 
    8       1.203728519252e-10       6.311767791572e-16       1.650832470747e-13       0.000000000000e+00       1.486190112319e-09       1.255319118785e-10       8.607640673068e-14 
    9       1.193047024321e-10       4.956729939109e-16       1.329084390920e-13       0.000000000000e+00       1.250668913448e-09       1.075703708770e-10       1.135368306093e-13 
   10       1.188454127961e-10       4.146691494162e-16       1.147246248636e-13       0.000000000000e+00       1.068276941386e-09       9.337061584629e-11       9.448119868997e-14 
   11       1.189170328865e-10       3.410542582489e-16       1.073552202514e-13       0.000000000000e+00       8.999938307936e-10       8.217833120771e-11       5.437909646409e-14 
   12       1.193435872365e-10       2.898517792691e-16       1.073598348319e-13       0.000000000000e+00       7.857526600632e-10       7.245528150113e-11       1.189480257598e-14 
   13       1.200400871967e-10       2.715151847862e-16       1.117893550147e-13       0.000000000000e+00       6.920104194571e-10       6.442637203613e-11      -2.042252769315e-14 
   14       1.210143459822e-10       2.764849752837e-16       1.184368761163e-13       0.000000000000e+00       6.140688703953e-10       5.773969505543e-11      -3.762605800040e-14 
   15       1.221997474074e-10       2.915406830761e-16       1.258364264562e-13       0.000000000000e+00       5.484851339769e-10       5.191920561181e-11      -4.064353944308e-14 
   16       1.234894985877e-10       3.137576511701e-16       1.333306514457e-13       0.000000000000e+00       4.927581470495e-10       4.694190439006e-11      -3.342406305822e-14 
   17       1.249524977654e-10       3.489845940589e-16       1.408469307839e-13       0.000000000000e+00       4.449841616692e-10       4.261977537756e-11      -2.153655143151e-14 
   18       1.265073851060e-10       4.030713171323e-16       1.486484559520e-13       0.000000000000e+00       4.035435790795e-10       3.884167245543e-11      -1.020570150133e-14 
   19       1.281663773385e-10       4.763024021288e-16       1.569969042484e-13       0.000000000000e+00       3.677693046719e-10       3.557472851653e-11      -2.194200531126e-15 
   20       1.299289102285e-10       5.664726683892e-16       1.660948211671e-13       0.000000000000e+00       3.362723381941e-10       3.270548730076e-11       6.776985488217e-16 
   21       1.317820007313e-10       6.727479352713e-16       1.759081157214e-13       0.000000000000e+00       3.085595567107e-10       3.016854188464e-11      -9.719969082378e-16 
   22       1.336789101797e-10       7.944115076864e-16       1.862343255225e-13       0.000000000000e+00       2.839721681399e-10       2.787555270449e-11      -5.263532904074e-15 
   23       1.356414461906e-10       9.313202963681e-16       1.967095427344e-13       0.000000000000e+00       2.621648252122e-10       2.581114187468e-11      -1.034248082408e-14 
   24       1.376865853439e-10       1.083356590933e-15       2.068660952277e-13       0.000000000000e+00       2.426226046204e-10       2.395958450444e-11      -1.424547329644e-14 
   25       1.398001078964e-10       1.250569463501e-15       2.163714838665e-13       0.000000000000e+00       2.251153126603e-10       2.231094764087e-11      -1.612154496857e-14 
   26       1.419439650553e-10       1.433298307736e-15       2.249465787783e-13       0.000000000000e+00       2.093286657815e-10       2.083705181992e-11      -1.565423909434e-14 
   27       1.441221406342e-10       1.633467712699e-15       2.325170382256e-13       0.000000000000e+00       1.950719553345e-10       1.950144913450e-11      -1.351509963414e-14 
   28       1.463407922908e-10       1.853493685496e-15       2.390994774944e-13       0.000000000000e+00       1.820966662872e-10       1.825917418028e-11      -1.077173116511e-14 
   29       1.486081019276e-10       2.094760995886e-15       2.447648600659e-13       0.000000000000e+00       1.703351224184e-10       1.711282743488e-11      -8.077001760249e-15 
   30       1.509192028078e-10       2.358335834193e-15       2.496367223411e-13       0.000000000000e+00       1.596597408373e-10       1.607263875717e-11      -6.066042515618e-15 
   31       1.532581292804e-10       2.645227483615e-15       2.538426248043e-13       0.000000000000e+00       1.498511786756e-10       1.513869322999e-11      -5.327255793509e-15 
   32       1.556294909231e-10       2.956272956213e-15       2.573413951268e-13       0.000000000000e+00       1.408579263783e-10       1.429809209406e-11      -5.708067310819e-15 
   33       1.580358753434e-10       3.292195866918e-15       2.600304313476e-13       0.000000000000e+00       1.326156103919e-10       1.352461288613e-11      -6.736858914028e-15 
   34       1.604728580441e-10       3.653677046381e-15       2.617890303349e-13       0.000000000000e+00       1.250079730709e-10       1.278835083873e-11      -7.873779719400e-15 
   35       1.629450469629e-10       4.041526279910e-15       2.624795894042e-13       0.000000000000e+00       1.179956243292e-10       1.209105439039e-11      -8.800819087765e-15 
   36       1.654538492712e-10       4.456562426145e-15       2.619441347299e-13       0.000000000000e+00       1.115219071761e-10       1.144230916171e-11      -9.223554191993e-15 
   37       1.679953808796e-10       4.899570220010e-15       2.600346273416e-13       0.000000000000e+00       1.055020592085e-10       1.084855856302e-11      -8.895330055801e-15 
   38       1.705710173011e-10       5.371319542104e-15       2.567234427054e-13       0.000000000000e+00       9.992016426404e-11       1.030818402169e-11      -7.974745065710e-15 
   39       1.731790293829e-10       5.872546983614e-15       2.520297602048e-13       0.000000000000e+00       9.475812508789e-11       9.814258413007e-12      -6.789968101463e-15 
   40       1.758108965123e-10       6.403946735061e-15       2.459914757855e-13       0.000000000000e+00       8.996617508790e-11       9.355402004494e-12      -5.749738738342e-15 
   41       1.784559502171e-10       6.966184858969e-15       2.386496978187e-13       0.000000000000e+00       8.548012852235e-11       8.919269477876e-12      -5.236288086170e-15 
   42       1.811187421032e-10       7.559955128880e-15       2.299933696985e-13       0.000000000000e+00       8.128651858611e-11       8.505241518772e-12      -5.229654478728e-15 
   43       1.838061961286e-10       8.185936163416e-15       2.199985769152e-13       0.000000000000e+00       7.737401918988e-11       8.115258912543e-12      -5.569838505274e-15 
   44       1.865224770928e-10       8.844773766766e-15       2.086436744212e-13       0.000000000000e+00       7.371390663116e-11       7.750238418792e-12      -6.056072120441e-15 
   45       1.892694728072e-10       9.537074812564e-15       1.959028905358e-13       0.000000000000e+00       7.027026794012e-11       7.410138002310e-12      -6.491233574589e-15 
   46       1.920491396166e-10       1.026339120944e-14       1.817248290376e-13       0.000000000000e+00       6.703752599668e-11       7.094400707270e-12      -6.836854550240e-15 
   47       1.948613332303e-10       1.102422789757e-14       1.660475612484e-13       0.000000000000e+00       6.401177918096e-11       6.801481121381e-12      -7.100174812305e-15 
   48       1.977028226817e-10       1.182004454765e-14       1.488041292716e-13       0.000000000000e+00       6.117948571688e-11       6.528612258314e-12      -7.291417012128e-15 
   49       2.005670273107e-10       1.265125341128e-14       1.299221893818e-13       0.000000000000e+00       5.851674755042e-11       6.271719362405e-12      -7.423973807769e-15 
   50       2.034469636537e-10       1.351820962601e-14       1.093349196857e-13       0.000000000000e+00       5.599647888277e-11       6.026535935721e-12      -7.514795961237e-15 
   51       2.063456393158e-10       1.442118401514e-14       8.701806089167e-14       0.000000000000e+00       5.361386710267e-11       5.792508920975e-12      -7.585246702265e-15 
   52       2.092680257559e-10       1.536037918902e-14       6.296231341482e-14       0.000000000000e+00       5.136658507608e-11       5.569804542513e-12      -7.660802720798e-15 
   53       2.122179856572e-10       1.633593399989e-14       3.716312121611e-14       0.000000000000e+00       4.924717363239e-11       5.358169812873e-12      -7.771065373323e-15 
   54       2.151981609642e-10       1.734792103719e-14       9.620845274915e-15       0.000000000000e+00       4.724269648535e-11       5.156902912649e-12      -7.949957260892e-15 
   55       2.182101813047e-10       1.839638782825e-14      -1.966379640304e-14       0.000000000000e+00       4.533866925115e-11       4.965139960623e-12      -8.225053708298e-15 
   56       2.212556063845e-10       1.948149816406e-14      -5.070513271536e-14       0.000000000000e+00       4.353278003499e-11       4.782866605178e-12      -8.582023289572e-15 
   57       2.243350215925e-10       2.060342149474e-14      -8.352065834904e-14       0.000000000000e+00       4.182397289956e-11       4.610105851928e-12      -8.991697887465e-15 
   58       2.274476408112e-10       2.176229151572e-14      -1.181266462946e-13       0.000000000000e+00       4.020829772919e-11       4.446606774102e-12      -9.419942031533e-15 
   59       2.305912069371e-10       2.295820536588e-14      -1.545381587941e-13       0.000000000000e+00       3.867873167396e-11       4.291827219302e-12      -9.827426160618e-15 
   60       2.337618923999e-10       2.419122282571e-14      -1.927690582892e-13       0.000000000000e+00       3.722500059384e-11       4.144916516276e-12      -1.016939988533e-14 
   61       2.369558748255e-10       2.546129662897e-14      -2.328292399212e-13       0.000000000000e+00       3.583642228099e-11       4.004957762637e-12      -1.040595029651e-14 
   62       2.401747023671e-10       2.676804693296e-14      -2.747155783625e-13       0.000000000000e+00       3.451158583589e-11       3.871797361295e-12      -1.053598054176e-14 
   63       2.434209616312e-10       2.811093457237e-14      -3.184189590837e-13       0.000000000000e+00       3.325053796812e-11       3.745371842616e-12      -1.057049046506e-14 
   64       2.466966633935e-10       2.948932255032e-14      -3.639268018064e-13       0.000000000000e+00       3.205187189661e-11       3.625455836434e-12      -1.052286841566e-14 
   65       2.500031962689e-10       3.090247305074e-14      -4.112229832923e-13       0.000000000000e+00       3.091264467241e-11       3.511653015126e-12      -1.040899719318e-14 
   66       2.533412803829e-10       3.234954445083e-14      -4.602877601342e-13       0.000000000000e+00       2.982829450163e-11       3.403387036687e-12      -1.024735999268e-14 
   67       2.567109210417e-10       3.382958833345e-14      -5.110976915451e-13       0.000000000000e+00       2.879255806831e-11       3.299892487805e-12      -1.005914634965e-14 
   68       2.601118952175e-10       3.534165899027e-14      -5.636284906800e-13       0.000000000000e+00       2.779913840591e-11       3.200414013438e-12      -9.864217992347e-15 
   69       2.635454290296e-10       3.688517437468e-14      -6.178644220877e-13       0.000000000000e+00       2.684728576016e-11       3.104870804461e-12      -9.667820368828e-15 
   70       2.670127784988e-10       3.845962325644e-14      -6.737906784752e-13       0.000000000000e+00       2.593720422693e-11       3.013311101090e-12      -9.471356478288e-15 
   71       2.705146946916e-10       4.006445909370e-14      -7.313906183868e-13       0.000000000000e+00       2.506836403239e-11       2.925712253962e-12      -9.276288783555e-15 
   72       2.740513910174e-10       4.169909992236e-14      -7.906457638920e-13       0.000000000000e+00       2.423946362697e-11       2.841976991673e-12      -9.084139271432e-15 
   73       2.776225105269e-10       4.336292824554e-14      -8.515357982747e-13       0.000000000000e+00       2.344839177926e-11       2.761929688313e-12      -8.896489513026e-15 
   74       2.812270932092e-10       4.505529092297e-14      -9.140385637207e-13       0.000000000000e+00       2.269218966998e-11       2.685312631010e-12      -8.714980724080e-15 
   75       2.848635432894e-10       4.677549906045e-14      -9.781300590072e-13       0.000000000000e+00       2.196701298589e-11       2.611782287461e-12      -8.541313825311e-15 
   76       2.885303129535e-10       4.852277369413e-14      -1.043784059308e-12       0.000000000000e+00       2.126908401791e-11       2.540995195304e-12      -8.377119200368e-15 
   77       2.922281697532e-10       5.029607165314e-14      -1.110970900680e-12       0.000000000000e+00       2.059783218968e-11       2.472891962898e-12      -8.223538416968e-15 
   78       2.959582851802e-10       5.209422759376e-14      -1.179658468693e-12       0.000000000000e+00       1.995326001257e-11       2.407458516936e-12      -8.081565985837e-15 
   79       2.997215372006e-10       5.391600418509e-14      -1.249812546752e-12       0.000000000000e+00       1.933498656673e-11       2.344639210972e-12      -7.952170327026e-15 
   80       3.035184922433e-10       5.576009088694e-14      -1.321396806033e-12       0.000000000000e+00       1.874222989587e-11       2.284334930728e-12      -7.836291158299e-15 
   81       3.073493871883e-10       5.762510272773e-14      -1.394372795426e-12       0.000000000000e+00       1.817378940201e-11       2.226401199397e-12      -7.734836883501e-15 
   82       3.112141113558e-10       5.950957908240e-14      -1.468699931475e-12       0.000000000000e+00       1.762802824027e-11       2.170646282954e-12      -7.648681980944e-15 
   83       3.151121884940e-10       6.141198245034e-14      -1.544335488316e-12       0.000000000000e+00       1.710285571364e-11       2.116829295461e-12      -7.578664391777e-15 
   84       3.190431046003e-10       6.333075729093e-14      -1.621235122974e-12       0.000000000000e+00       1.659623436348e-11       2.064719364089e-12      -7.525132204833e-15 
   85       3.230073932772e-10       6.526452041423e-14      -1.699354573360e-12       0.000000000000e+00       1.610783639359e-11       2.014288544001e-12      -7.486503086111e-15 
   86       3.270056981187e-10       6.721190005914e-14      -1.778648224628e-12       0.000000000000e+00       1.563763084461e-11       1.965547559541e-12      -7.460460134560e-15 
   87       3.310384308568e-10       6.917147843241e-14      -1.859068597802e-12       0.000000000000e+00       1.518537465606e-11       1.918486732332e-12      -7.444371315814e-15 
   88       3.351057591627e-10       7.114179149593e-14      -1.940566348709e-12       0.000000000000e+00       1.475060387952e-11       1.873075112794e-12      -7.435279275717e-15 
   89       3.392075944470e-10       7.312132875396e-14      -2.023090266919e-12       0.000000000000e+00       1.433262489184e-11       1.829259611665e-12      -7.429891153857e-15 
   90       3.433435796611e-10       7.510853304044e-14      -2.106587274679e-12       0.000000000000e+00       1.393050560833e-11       1.786964131522e-12      -7.424568397086e-15 
   91       3.475130770981e-10       7.710180030626e-14      -2.191002425857e-12       0.000000000000e+00       1.354306669592e-11       1.746088698299e-12      -7.415316573056e-15 
   92       3.517151561931e-10       7.909947940654e-14      -2.276278904871e-12       0.000000000000e+00       1.316887278638e-11       1.706508592807e-12      -7.397775183740e-15 
   93       3.559489097068e-10       8.109989739887e-14      -2.362358779810e-12       0.000000000000e+00       1.280657255673e-11       1.668105803482e-12      -7.368230151175e-15 
   94       3.602144831685e-10       8.310144025266e-14      -2.449185393650e-12       0.000000000000e+00       1.245599656433e-11       1.630870682214e-12      -7.326847591224e-15 
   95       3.645121784264e-10       8.510248394166e-14      -2.536701332386e-12       0.000000000000e+00       1.211720904863e-11       1.594814042968e-12      -7.274909828907e-15 
   96       3.688421314729e-10       8.710137015016e-14      -2.624847712062e-12       0.000000000000e+00       1.179016983157e-11       1.559935783727e-12      -7.213839861774e-15 
   97       3.732043047529e-10       8.909640641049e-14      -2.713564188061e-12       0.000000000000e+00       1.147473031958e-11       1.526224461674e-12      -7.145205211487e-15 
   98       3.775984794724e-10       9.108586624042e-14      -2.802788964394e-12       0.000000000000e+00       1.117062950563e-11       1.493656868388e-12      -7.070721775402e-15 
   99       3.820242479072e-10       9.306798928070e-14      -2.892458802991e-12       0.000000000000e+00       1.087748997129e-11       1.462197605027e-12      -6.992257678150e-15 
  100       3.864810057111e-10       9.504098143244e-14      -2.982509032994e-12       0.000000000000e+00       1.059481388871e-11       1.431798657516e-12      -6.911837123216e-15 
  101       3.909679442243e-10       9.700301499462e-14      -3.072873560038e-12       0.000000000000e+00       1.032197902270e-11       1.402398971739e-12      -6.831644244527e-15 
  102       3.954840427824e-10       9.895222880154e-14      -3.163484875551e-12       0.000000000000e+00       1.005823473272e-11       1.373924028724e-12      -6.754026958028e-15 
  103       4.000280610247e-10       1.008867283603e-13      -3.254274066035e-12       0.000000000000e+00       9.802697974962e-12       1.346285419831e-12      -6.681500813268e-15 
  104       4.045988163664e-10       1.028046336682e-13      -3.345171694404e-12       0.000000000000e+00       9.554553266124e-12       1.319400939329e-12      -6.616195936287e-15 
  105       4.091960756715e-10       1.047042297264e-13      -3.436110559546e-12       0.000000000000e+00       9.313691949587e-12       1.293258868254e-12      -6.558104476871e-15 
  106       4.138197702537e-10       1.065838367091e-13      -3.527023328595e-12       0.000000000000e+00       9.080152233452e-12       1.267861622819e-12      -6.506602495302e-15 
  107       4.184697169655e-10       1.084417647530e-13      -3.617841716815e-12       0.000000000000e+00       8.853921204737e-12       1.243205815536e-12      -6.460983489185e-15 
