# dimensionless total lensed [l(l+1)/2pi] C_l's
# for l=2 to 2600, i.e. number of multipoles equal to 2599
#
# -> if you prefer output in CAMB/HealPix/LensPix units/order, set 'format' to 'camb' in input file
# -> if you don't want to see such a header, set 'headers' to 'no' in input file
# -> for CMB lensing (phi), these are C_l^phi-phi for the lensing potential.
#    Remember the conversion factors:
#    C_l^dd (deflection) = l(l+1) C_l^phi-phi
#    C_l^gg (shear/convergence) = 1/4 (l(l+1))^2 C_l^phi-phi
#
# 1:l     2:TT                     3:EE                     4:TE                     5:BB                     6:phiphi                 7:TPhi                   8:Ephi               
    2       1.498688977623e-10       5.086817861609e-15       6.188202869351e-13       1.667140464910e-19       5.923840758931e-09       1.728164857403e-11      -1.899162848069e-12 
    3       1.492049042718e-10       6.965959158514e-15       6.528258692324e-13       3.334030562743e-19       3.547989437303e-09       4.614455950970e-11      -1.570617292305e-12 
    4       1.487398422824e-10       6.644936253741e-15       6.052921839699e-13       5.556206198682e-19       2.414061877130e-09       5.351146034845e-11      -1.147199127650e-12 
    5       1.483119419988e-10       5.012652462825e-15       5.170426088383e-13       8.333456145923e-19       1.769730687738e-09       5.367197222270e-11      -7.451681292391e-13 
    6       1.480594061078e-10       3.203325165984e-15       4.164843359750e-13       1.166561570994e-18       1.361687151429e-09       5.148274769776e-11      -4.172529905980e-13 
    7       1.480422238172e-10       1.897349144668e-15       3.266884167710e-13       1.555262435871e-18       1.084557881649e-09       4.858579050121e-11      -1.831385906098e-13 
    8       1.481588960768e-10       1.216342114265e-15       2.609504625133e-13       1.999458683582e-18       8.866919466152e-10       4.568424638220e-11      -4.052173662506e-14 
    9       1.483833111547e-10       9.754444023297e-16       2.230941524738e-13       2.499183404140e-18       7.398752430854e-10       4.312595278138e-11       2.586073120130e-14 
   10       1.487285461338e-10       9.482205256690e-16       2.086738770293e-13       3.054497986288e-18       6.274016826796e-10       4.096724972212e-11       3.786648725372e-14 
   11       1.491521378502e-10       1.000790882715e-15       2.096632295215e-13       3.665497022632e-18       5.397001706501e-10       4.165979323644e-11       3.315615514928e-14 
   12       1.496737798759e-10       1.092611068278e-15       2.181737283299e-13       4.332312091911e-18       4.683265773329e-10       3.778652319604e-11       2.883342938105e-15 
   13       1.503004665160e-10       1.221989790002e-15       2.266414818469e-13       5.055114119534e-18       4.095619302032e-10       3.534936767854e-11      -2.875411591136e-14 
   14       1.510415390180e-10       1.374141488928e-15       2.311209841722e-13       5.834114079568e-18       3.606248041525e-10       3.459402257530e-11      -4.979610031673e-14 
   15       1.518462075314e-10       1.496938589518e-15       2.301310182907e-13       6.669561876912e-18       3.250906227908e-10       3.377270503088e-11      -5.186230795293e-14 
   16       1.527301447887e-10       1.534517992594e-15       2.232167255056e-13       7.561743333967e-18       2.896909373034e-10       3.287394414518e-11      -4.847777054814e-14 
   17       1.537370137577e-10       1.480076491559e-15       2.149734954397e-13       8.510975297861e-18       2.618629513041e-10       3.106961387439e-11      -4.047300846074e-14 
   18       1.548087340539e-10       1.391872402639e-15       2.098891975980e-13       9.517600000959e-18       2.378557007572e-10       2.906949149210e-11      -3.525616648833e-14 
   19       1.559755415055e-10       1.346201923118e-15       2.079472783431e-13       1.058197171575e-17       2.163253056612e-10       2.730718570753e-11      -3.527937282467e-14 
   20       1.572289013005e-10       1.411017823891e-15       2.072305735858e-13       1.170445824313e-17       1.979354066970e-10       2.596282034321e-11      -3.918397511313e-14 
   21       1.585742032553e-10       1.530665707533e-15       2.059328675981e-13       1.288541638527e-17       1.820857531954e-10       2.526029640868e-11      -4.223952839941e-14 
   22       1.599785856098e-10       1.603492935408e-15       2.029290481324e-13       1.412519472291e-17       1.675234312786e-10       2.526571320463e-11      -3.836588869862e-14 
   23       1.614530088252e-10       1.599000041735e-15       2.021257004553e-13       1.542410950714e-17       1.541462923498e-10       2.521558710674e-11      -2.555640120536e-14 
   24       1.629851768517e-10       1.529201918278e-15       2.092570949572e-13       1.678244733571e-17       1.421240115987e-10       2.419149049035e-11      -3.843785723315e-15 
   25       1.645392563332e-10       1.496914841148e-15       2.272388156234e-13       1.820044304159e-17       1.317145564259e-10       2.265710287298e-11       2.379715085815e-14 
   26       1.660700125105e-10       1.620610709351e-15       2.560771106206e-13       1.967828226215e-17       1.229860103906e-10       2.149927221322e-11       5.256963090032e-14 
   27       1.676679582938e-10       1.868615650314e-15       2.862186148376e-13       2.121608580837e-17       1.153149119015e-10       2.089462560323e-11       7.690898579616e-14 
   28       1.694429485268e-10       2.159083758591e-15       3.054435494997e-13       2.281391204300e-17       1.078650064162e-10       2.074982717325e-11       9.139238015215e-14 
   29       1.714008038273e-10       2.454443540109e-15       3.112723558917e-13       2.447175516109e-17       1.006753533099e-10       2.082124851514e-11       9.563446236837e-14 
   30       1.734865424314e-10       2.725220578239e-15       3.046333199584e-13       2.618953807613e-17       9.405771695490e-11       2.074748421571e-11       9.134391710204e-14 
   31       1.756209242401e-10       2.946624506551e-15       2.878445964074e-13       2.796711698874e-17       8.826577971822e-11       2.019145469326e-11       8.085443175144e-14 
   32       1.777711826786e-10       3.139979353419e-15       2.666809179785e-13       2.980431464285e-17       8.321294975501e-11       1.930237945934e-11       6.616615949515e-14 
   33       1.799018825084e-10       3.347771703082e-15       2.493027711720e-13       3.170089082239e-17       7.863513440499e-11       1.843274639322e-11       4.964066209021e-14 
   34       1.819737315355e-10       3.612459304966e-15       2.432574018400e-13       3.365654912936e-17       7.424589943528e-11       1.791526963306e-11       3.384871094780e-14 
   35       1.840112458662e-10       3.937091895825e-15       2.464173526028e-13       3.567100741967e-17       7.005700634445e-11       1.767966695443e-11       2.000959287500e-14 
   36       1.860571843156e-10       4.310917770051e-15       2.527871478425e-13       3.774394635654e-17       6.616479714326e-11       1.749914149146e-11       9.032443510060e-15 
   37       1.881484276516e-10       4.722273676244e-15       2.563001484196e-13       3.987502496998e-17       6.264434356529e-11       1.715217103617e-11       1.654904870363e-15 
   38       1.902958495668e-10       5.168188912244e-15       2.560519314427e-13       4.206400735192e-17       5.947848342603e-11       1.664618154957e-11      -2.506944120875e-15 
   39       1.924965077265e-10       5.647745823731e-15       2.527458330332e-13       4.431067653691e-17       5.660211092493e-11       1.606661437780e-11      -4.340781641917e-15 
   40       1.947378424697e-10       6.159457139684e-15       2.473116125302e-13       4.661480100915e-17       5.391796609842e-11       1.551862888824e-11      -5.007952840702e-15 
   41       1.970036495199e-10       6.701796914661e-15       2.406854170904e-13       4.897617763696e-17       5.132590910547e-11       1.509730568217e-11      -5.673783888224e-15 
   42       1.992965739431e-10       7.275097147773e-15       2.330263508768e-13       5.139477642280e-17       4.882822053860e-11       1.478363090634e-11      -6.547493859036e-15 
   43       2.016213721681e-10       7.880201417191e-15       2.242709030315e-13       5.387064347859e-17       4.645436763052e-11       1.451672340697e-11      -7.561560168034e-15 
   44       2.039781927214e-10       8.517946680115e-15       2.143457247859e-13       5.640386574337e-17       4.423187370649e-11       1.422105450343e-11      -8.632414468005e-15 
   45       2.063647671892e-10       9.189094292176e-15       2.031640602011e-13       5.899458928822e-17       4.218127693613e-11       1.382823941038e-11      -9.669011234083e-15 
   46       2.087848399400e-10       9.894099944562e-15       1.906155470031e-13       6.164307295036e-17       4.029995854504e-11       1.335230274136e-11      -1.060387105457e-14 
   47       2.112414820311e-10       1.063327388539e-14       1.765720809320e-13       6.434965636854e-17       3.857293907423e-11       1.283538232270e-11      -1.136967023412e-14 
   48       2.137343663952e-10       1.140683886242e-14       1.608894704540e-13       6.711475045051e-17       3.697660734011e-11       1.232738619773e-11      -1.189010063701e-14 
   49       2.162594638103e-10       1.221492556216e-14       1.434065189195e-13       6.993884154913e-17       3.547813048919e-11       1.188639880298e-11      -1.207945023279e-14 
   50       2.188113946449e-10       1.305764386180e-14       1.239794435084e-13       7.282245877067e-17       3.404409282687e-11       1.156331180922e-11      -1.187352622730e-14 
   51       2.213919420058e-10       1.393532996708e-14       1.025982755219e-13       7.576605574978e-17       3.267054540194e-11       1.134985618476e-11      -1.133329299194e-14 
   52       2.240033238528e-10       1.484835847337e-14       7.930046908750e-14       7.877010400230e-17       3.136009328555e-11       1.121716612360e-11      -1.056864042616e-14 
   53       2.266455643820e-10       1.579707144625e-14       5.413905323422e-14       8.183512937148e-17       3.011322773432e-11       1.112999327973e-11      -9.710530522394e-15 
   54       2.293163149735e-10       1.678177742827e-14       2.718337695815e-14       8.496171446917e-17       2.892817054026e-11       1.104637057459e-11      -8.912052856884e-15 
   55       2.320124595281e-10       1.780270746601e-14      -1.495002479074e-15       8.815041166094e-17       2.780191471575e-11       1.092724649845e-11      -8.314071038253e-15 
   56       2.347358076806e-10       1.885987267462e-14      -3.187046675374e-14       9.140145111601e-17       2.673400587302e-11       1.076896090682e-11      -7.929750259360e-15 
   57       2.374885022777e-10       1.995316954952e-14      -6.392584503507e-14       9.471496450651e-17       2.572342758721e-11       1.057824804145e-11      -7.733192685404e-15 
   58       2.402712517545e-10       2.108241723625e-14      -9.763844253855e-14       9.809106708759e-17       2.476738069759e-11       1.036302400852e-11      -7.692016189462e-15 
   59       2.430832206029e-10       2.224735486266e-14      -1.329798742957e-13       1.015298566533e-16       2.386117426797e-11       1.013243904686e-11      -7.767030270224e-15 
   60       2.459219198410e-10       2.344763887121e-14      -1.699158989235e-13       1.050314124925e-16       2.299811654707e-11       9.896929796286e-12      -7.911911969729e-15 
   61       2.487846298410e-10       2.468291618464e-14      -2.084167373370e-13       1.085957328455e-16       2.217136297692e-11       9.666113056348e-12      -8.082183348528e-15 
   62       2.516732898081e-10       2.595306892965e-14      -2.484911114937e-13       1.122225332321e-16       2.138019162072e-11       9.441796359665e-12      -8.265231828467e-15 
   63       2.545905164272e-10       2.725802016010e-14      -2.901595858031e-13       1.159114007973e-16       2.062494923992e-11       9.223484157928e-12      -8.456483814607e-15 
   64       2.575381086443e-10       2.859766261417e-14      -3.334449195366e-13       1.196618488799e-16       1.990517252863e-11       9.010381994586e-12      -8.650669368535e-15 
   65       2.605169867558e-10       2.997185845280e-14      -3.783722332765e-13       1.234733140166e-16       1.921954116969e-11       8.801380285247e-12      -8.841793257483e-15 
   66       2.635271314980e-10       3.138043899802e-14      -4.249691753653e-13       1.273451529466e-16       1.856583089078e-11       8.595038098077e-12      -9.023106003443e-15 
   67       2.665675231362e-10       3.282320447130e-14      -4.732660883540e-13       1.312766396163e-16       1.794086652046e-11       8.389566934203e-12      -9.187074932284e-15 
   68       2.696370184328e-10       3.429984031760e-14      -5.232888622810e-13       1.352670651695e-16       1.734139520744e-11       8.183425308186e-12      -9.326288302578e-15 
   69       2.727373240476e-10       3.580964707367e-14      -5.750354408616e-13       1.393160681400e-16       1.676701647506e-11       7.977278646299e-12      -9.436445141979e-15 
   70       2.758705189723e-10       3.735175504248e-14      -6.284948319776e-13       1.434233660908e-16       1.621776426876e-11       7.772409202291e-12      -9.513922005300e-15 
   71       2.790381336985e-10       3.892520051245e-14      -6.836539794246e-13       1.475886581933e-16       1.569321633312e-11       7.570139807549e-12      -9.554888501702e-15 
   72       2.822411132934e-10       4.052892336256e-14      -7.404977423238e-13       1.518116248658e-16       1.519247080157e-11       7.371833272979e-12      -9.555302207743e-15 
   73       2.854797804757e-10       4.216176466725e-14      -7.990088745330e-13       1.560919274116e-16       1.471412278600e-11       7.178891790895e-12      -9.510903580424e-15 
   74       2.887537986923e-10       4.382246430151e-14      -8.591680040583e-13       1.604292076575e-16       1.425624096649e-11       6.992756336906e-12      -9.417210870241e-15 
   75       2.920621351936e-10       4.550965854585e-14      -9.209536124654e-13       1.648230875927e-16       1.381634418090e-11       6.814906071800e-12      -9.269515034233e-15 
   76       2.954036529929e-10       4.722199733716e-14      -9.843397405206e-13       1.692733161433e-16       1.339202007111e-11       6.646488211021e-12      -9.065165028836e-15 
   77       2.987790929866e-10       4.895852599983e-14      -1.049288667603e-12       1.737802411982e-16       1.298296301211e-11       6.487131033045e-12      -8.810916047580e-15 
   78       3.021893878794e-10       5.071836909732e-14      -1.115756853740e-12       1.783444234024e-16       1.258926700382e-11       6.335912325061e-12      -8.516918253595e-15 
   79       3.056350417266e-10       5.250061701928e-14      -1.183697028824e-12       1.829664992695e-16       1.221080650425e-11       6.191701669506e-12      -8.194586476943e-15 
   80       3.091161059069e-10       5.430432603994e-14      -1.253058125396e-12       1.876471838366e-16       1.184722618508e-11       6.053152268393e-12      -7.856642093767e-15 
   81       3.126321550934e-10       5.612851837658e-14      -1.323785211433e-12       1.923872733206e-16       1.149793068719e-11       5.918692767634e-12      -7.517154905425e-15 
   82       3.161822632260e-10       5.797218224797e-14      -1.395819423136e-12       1.971876477732e-16       1.116207437623e-11       5.786519081367e-12      -7.191585017635e-15 
   83       3.197649794826e-10       5.983427193280e-14      -1.469097897709e-12       2.020492737366e-16       1.083855109813e-11       5.654586216275e-12      -6.896824719620e-15 
   84       3.233789233346e-10       6.171366991834e-14      -1.543559445938e-12       2.069730954103e-16       1.052626965389e-11       5.521181545877e-12      -6.647775048109e-15 
   85       3.270247356896e-10       6.360906600847e-14      -1.619162797620e-12       2.119596816027e-16       1.022505513524e-11       5.386771737092e-12      -6.446331661057e-15 
   86       3.307034086559e-10       6.551905818830e-14      -1.695871271665e-12       2.170095248482e-16       9.934878923349e-12       5.252448438871e-12      -6.290641348879e-15 
   87       3.344156817958e-10       6.744218818187e-14      -1.773647334066e-12       2.221231484629e-16       9.655580892818e-12       5.119375628304e-12      -6.178388885152e-15 
   88       3.381620285022e-10       6.937694087351e-14      -1.852452627150e-12       2.273011073261e-16       9.386863969214e-12       4.988791207218e-12      -6.106780665172e-15 
   89       3.419426423753e-10       7.132174372907e-14      -1.932247998833e-12       2.325439886623e-16       9.128288686628e-12       4.862008598769e-12      -6.072528344502e-15 
   90       3.457574235988e-10       7.327496621728e-14      -2.012993531870e-12       2.378524128230e-16       8.879267745232e-12       4.740418344033e-12      -6.071832477524e-15 
   91       3.496059653166e-10       7.523491923102e-14      -2.094648573111e-12       2.432270340687e-16       8.639060568834e-12       4.625489698604e-12      -6.100366155991e-15 
   92       3.534875400095e-10       7.719985450866e-14      -2.177171762751e-12       2.486685413504e-16       8.406767862430e-12       4.518772229180e-12      -6.153258647575e-15 
   93       3.574014127175e-10       7.916801798168e-14      -2.260518994307e-12       2.541774938044e-16       8.181547345531e-12       4.421506329975e-12      -6.225624801283e-15 
   94       3.613478641858e-10       8.113782025280e-14      -2.344636880034e-12       2.597537972369e-16       7.963309888762e-12       4.333384296138e-12      -6.314279881962e-15 
   95       3.653272971277e-10       8.310769080714e-14      -2.429468352219e-12       2.653971499822e-16       7.752118500891e-12       4.253605000599e-12      -6.416253596413e-15 
   96       3.693399140751e-10       8.507602652981e-14      -2.514954645726e-12       2.711071997061e-16       7.547974107791e-12       4.181244650319e-12      -6.528258555998e-15 
   97       3.733857082423e-10       8.704119186743e-14      -2.601035298845e-12       2.768835419198e-16       7.350813146038e-12       4.115253014590e-12      -6.646681406846e-15 
   98       3.774644543882e-10       8.900151898966e-14      -2.687648154139e-12       2.827257184923e-16       7.160505156510e-12       4.054449653332e-12      -6.767573960050e-15 
   99       3.815756996801e-10       9.095530795080e-14      -2.774729359292e-12       2.886332161635e-16       6.976850377985e-12       3.997520145396e-12      -6.886644321876e-15 
  100       3.857187545566e-10       9.290082685124e-14      -2.862213367960e-12       2.946054650572e-16       6.799577340742e-12       3.943012316858e-12      -6.999248023963e-15 
  101       3.898926835905e-10       9.483631199911e-14      -2.950032940616e-12       3.006418371939e-16       6.628340460154e-12       3.889332469325e-12      -7.100379153529e-15 
  102       3.940962963522e-10       9.675996807171e-14      -3.038119145399e-12       3.067416450038e-16       6.462717630290e-12       3.834741608229e-12      -7.184661483571e-15 
  103       3.983281382728e-10       9.866996827713e-14      -3.126401358964e-12       3.129041398400e-16       6.302207817515e-12       3.777351671129e-12      -7.246339603072e-15 
  104       4.025868473573e-10       1.005644968297e-13      -3.214808964227e-12       3.191287674894e-16       6.146345309177e-12       3.715566263243e-12      -7.280642317992e-15 
  105       4.068722988841e-10       1.024418825635e-13      -3.303276702979e-12       3.254159772194e-16       5.995065219420e-12       3.649478793168e-12      -7.288101712417e-15 
  106       4.111845990241e-10       1.043004837529e-13      -3.391740051279e-12       3.317665197587e-16       5.848383101518e-12       3.579657052622e-12      -7.270803709879e-15 
  107       4.155237277435e-10       1.061386480301e-13      -3.480133606385e-12       3.381812013785e-16       5.706281590932e-12       3.506716674406e-12      -7.231074038311e-15 
