# dimensionless total [l(l+1)/2pi] C_l's
# for l=2 to 3100, i.e. number of multipoles equal to 3099
#
# -> if you prefer output in CAMB/HealPix/LensPix units/order, set 'format' to 'camb' in input file
# -> if you don't want to see such a header, set 'headers' to 'no' in input file
# -> for CMB lensing (phi), these are C_l^phi-phi for the lensing potential.
#    Remember the conversion factors:
#    C_l^dd (deflection) = l(l+1) C_l^phi-phi
#    C_l^gg (shear/convergence) = 1/4 (l(l+1))^2 C_l^phi-phi
#
# 1:l     2:TT                     3:EE                     4:TE                     5:BB                     6:phiphi                 7:TPhi                   8:Ephi               
    2       1.498685574530e-10       5.086651147443e-15       6.188202907543e-13       0.000000000000e+00       5.923840758931e-09       1.728164857403e-11      -1.899162848069e-12 
    3       1.492042257885e-10       6.965625754272e-15       6.528258861962e-13       0.000000000000e+00       3.547989437303e-09       4.614455950970e-11      -1.570617292305e-12 
    4       1.487387161510e-10       6.644380627287e-15       6.052922324973e-13       0.000000000000e+00       2.414061877130e-09       5.351146034845e-11      -1.147199127650e-12 
    5       1.483102613967e-10       5.011819097210e-15       5.170427187785e-13       0.000000000000e+00       1.769730687738e-09       5.367197222270e-11      -7.451681292391e-13 
    6       1.480570673653e-10       3.202158549786e-15       4.164845507274e-13       0.000000000000e+00       1.361687151429e-09       5.148274769776e-11      -4.172529905980e-13 
    7       1.480391268197e-10       1.895793754890e-15       3.266887949675e-13       0.000000000000e+00       1.084557881649e-09       4.858579050121e-11      -1.831385906098e-13 
    8       1.481549445585e-10       1.214342391700e-15       2.609510792180e-13       0.000000000000e+00       8.866919466152e-10       4.568424638220e-11      -4.052173662506e-14 
    9       1.483784128760e-10       9.729447199155e-16       2.230950998794e-13       0.000000000000e+00       7.398752430854e-10       4.312595278138e-11       2.586073120130e-14 
   10       1.487226129411e-10       9.451651509892e-16       2.086752646511e-13       0.000000000000e+00       6.274016826796e-10       4.096724972212e-11       3.786648725372e-14 
   11       1.491450856207e-10       9.971239363573e-16       2.096651839130e-13       0.000000000000e+00       5.397001706501e-10       4.165979323644e-11       3.315615514928e-14 
   12       1.496655283540e-10       1.088276480257e-15       2.181763923641e-13       0.000000000000e+00       4.683265773329e-10       3.778652319604e-11       2.883342938105e-15 
   13       1.502909390522e-10       1.216931256829e-15       2.266450136270e-13       0.000000000000e+00       4.095619302032e-10       3.534936767854e-11      -2.875411591136e-14 
   14       1.510306622258e-10       1.368302434144e-15       2.311255556518e-13       0.000000000000e+00       3.606248041525e-10       3.459402257530e-11      -4.979610031673e-14 
   15       1.518339108788e-10       1.490262130569e-15       2.301368136938e-13       0.000000000000e+00       3.250906227908e-10       3.377270503088e-11      -5.186230795293e-14 
   16       1.527163601454e-10       1.526946916857e-15       2.232239396464e-13       0.000000000000e+00       2.896909373034e-10       3.287394414518e-11      -4.847777054814e-14 
   17       1.537216749185e-10       1.471553244005e-15       2.149823320447e-13       0.000000000000e+00       2.618629513041e-10       3.106961387439e-11      -4.047300846074e-14 
   18       1.547917762505e-10       1.382339085728e-15       2.098998676779e-13       0.000000000000e+00       2.378557007572e-10       2.906949149210e-11      -3.525616648833e-14 
   19       1.559569009899e-10       1.335600319419e-15       2.079599990210e-13       0.000000000000e+00       2.163253056612e-10       2.730718570753e-11      -3.527937282467e-14 
   20       1.572085148558e-10       1.399289418789e-15       2.072455666371e-13       0.000000000000e+00       1.979354066970e-10       2.596282034321e-11      -3.918397511313e-14 
   21       1.585520079175e-10       1.517751747232e-15       2.059503590734e-13       0.000000000000e+00       1.820857531954e-10       2.526029640868e-11      -4.223952839941e-14 
   22       1.599545183027e-10       1.589334483103e-15       2.029492676208e-13       0.000000000000e+00       1.675234312786e-10       2.526571320463e-11      -3.836588869862e-14 
   23       1.614270062491e-10       1.583538061369e-15       2.021488815050e-13       0.000000000000e+00       1.541462923498e-10       2.521558710674e-11      -2.555640120536e-14 
   24       1.629571752837e-10       1.512377356968e-15       2.092834751336e-13       0.000000000000e+00       1.421240115987e-10       2.419149049035e-11      -3.843785723315e-15 
   25       1.645091917265e-10       1.478668726791e-15       2.272686377376e-13       0.000000000000e+00       1.317145564259e-10       2.265710287298e-11       2.379715085815e-14 
   26       1.660378204857e-10       1.600884250230e-15       2.561106235620e-13       0.000000000000e+00       1.229860103906e-10       2.149927221322e-11       5.256963090032e-14 
   27       1.676335743933e-10       1.847350336429e-15       2.862560752908e-13       0.000000000000e+00       1.153149119015e-10       2.089462560323e-11       7.690898579616e-14 
   28       1.694063084000e-10       2.136221461010e-15       3.054852233348e-13       0.000000000000e+00       1.078650064162e-10       2.074982717325e-11       9.139238015215e-14 
   29       1.713618437256e-10       2.429926568895e-15       3.113185200241e-13       0.000000000000e+00       1.006753533099e-10       2.082124851514e-11       9.563446236837e-14 
   30       1.734451995252e-10       2.698991778394e-15       3.046842640288e-13       0.000000000000e+00       9.405771695490e-11       2.074748421571e-11       9.134391710204e-14 
   31       1.755771369365e-10       2.918627339975e-15       2.879006241678e-13       0.000000000000e+00       8.826577971822e-11       2.019145469326e-11       8.085443175144e-14 
   32       1.777248911631e-10       3.110157868289e-15       2.667423477239e-13       0.000000000000e+00       8.321294975501e-11       1.930237945934e-11       6.616615949515e-14 
   33       1.798530292159e-10       3.316070580477e-15       2.493699369916e-13       0.000000000000e+00       7.863513440499e-11       1.843274639322e-11       4.964066209021e-14 
   34       1.819222615696e-10       3.578823895803e-15       2.433306543962e-13       0.000000000000e+00       7.424589943528e-11       1.791526963306e-11       3.384871094780e-14 
   35       1.839571072937e-10       3.901468111918e-15       2.464970569742e-13       0.000000000000e+00       7.005700634445e-11       1.767966695443e-11       2.000959287500e-14 
   36       1.860003286088e-10       4.273252070178e-15       2.528736833793e-13       0.000000000000e+00       6.616479714326e-11       1.749914149146e-11       9.032443510060e-15 
   37       1.880888100105e-10       4.682513043864e-15       2.563939076667e-13       0.000000000000e+00       6.264434356529e-11       1.715217103617e-11       1.654904870363e-15 
   38       1.902334285915e-10       5.126280675925e-15       2.561533130766e-13       0.000000000000e+00       5.947848342603e-11       1.664618154957e-11      -2.506944120875e-15 
   39       1.924312455709e-10       5.603637577020e-15       2.528552387108e-13       0.000000000000e+00       5.660211092493e-11       1.606661437780e-11      -4.340781641917e-15 
   40       1.946697051963e-10       6.113096696931e-15       2.474294452022e-13       0.000000000000e+00       5.391796609842e-11       1.551862888824e-11      -5.007952840702e-15 
   41       1.969326071552e-10       6.653132245139e-15       2.408120770312e-13       0.000000000000e+00       5.132590910547e-11       1.509730568217e-11      -5.673783888224e-15 
   42       1.992225994606e-10       7.224076247824e-15       2.331622242333e-13       0.000000000000e+00       4.882822053860e-11       1.478363090634e-11      -6.547493859036e-15 
   43       2.015444412304e-10       7.826772216024e-15       2.244163552329e-13       0.000000000000e+00       4.645436763052e-11       1.451672340697e-11      -7.561560168034e-15 
   44       2.038982837133e-10       8.462056954835e-15       2.145010956628e-13       0.000000000000e+00       4.423187370649e-11       1.422105450343e-11      -8.632414468005e-15 
   45       2.062818609664e-10       9.130691648399e-15       2.033296577811e-13       0.000000000000e+00       4.218127693613e-11       1.382823941038e-11      -9.669011234083e-15 
   46       2.086989186259e-10       9.833132031325e-15       1.907916374844e-13       0.000000000000e+00       4.029995854504e-11       1.335230274136e-11      -1.060387105457e-14 
   47       2.111525284789e-10       1.056968843560e-14       1.767588808917e-13       0.000000000000e+00       3.857293907423e-11       1.283538232270e-11      -1.136967023412e-14 
   48       2.136423638931e-10       1.134058366597e-14       1.610871397055e-13       0.000000000000e+00       3.697660734011e-11       1.232738619773e-11      -1.189010063701e-14 
   49       2.161643957681e-10       1.214594843715e-14       1.436151530471e-13       0.000000000000e+00       3.547813048919e-11       1.188639880298e-11      -1.207945023279e-14 
   50       2.187132442517e-10       1.298589276634e-14       1.241990676081e-13       0.000000000000e+00       3.404409282687e-11       1.156331180922e-11      -1.187352622730e-14 
   51       2.212906918284e-10       1.386075358205e-14       1.028288426930e-13       0.000000000000e+00       3.267054540194e-11       1.134985618476e-11      -1.133329299194e-14 
   52       2.238989554468e-10       1.477090643884e-14       7.954185490603e-14       0.000000000000e+00       3.136009328555e-11       1.121716612360e-11      -1.056864042616e-14 
   53       2.265380578978e-10       1.571669447130e-14       5.439104856610e-14       0.000000000000e+00       3.011322773432e-11       1.112999327973e-11      -9.710530522394e-15 
   54       2.292056487432e-10       1.669842740565e-14       2.744568052209e-14       0.000000000000e+00       2.892817054026e-11       1.104637057459e-11      -8.912052856884e-15 
   55       2.318986100733e-10       1.771633767933e-14      -1.222786942538e-15       0.000000000000e+00       2.780191471575e-11       1.092724649845e-11      -8.314071038253e-15 
   56       2.346187511413e-10       1.877043829892e-14      -3.158881758115e-14       0.000000000000e+00       2.673400587302e-11       1.076896090682e-11      -7.929750259360e-15 
   57       2.373682147418e-10       1.986062793982e-14      -6.363532200143e-14       0.000000000000e+00       2.572342758721e-11       1.057824804145e-11      -7.733192685404e-15 
   58       2.401477091795e-10       2.098672814280e-14      -9.733969079261e-14       0.000000000000e+00       2.476738069759e-11       1.036302400852e-11      -7.692016189462e-15 
   59       2.429563987375e-10       2.214848065449e-14      -1.326736283564e-13       0.000000000000e+00       2.386117426797e-11       1.013243904686e-11      -7.767030270224e-15 
   60       2.457917941450e-10       2.334554476780e-14      -1.696029867380e-13       0.000000000000e+00       2.299811654707e-11       9.896929796286e-12      -7.911911969729e-15 
   61       2.486511759625e-10       2.457757030175e-14      -2.080980792564e-13       0.000000000000e+00       2.217136297692e-11       9.666113056348e-12      -8.082183348528e-15 
   62       2.515364858778e-10       2.584444169948e-14      -2.481677025354e-13       0.000000000000e+00       2.138019162072e-11       9.441796359665e-12      -8.265231828467e-15 
   63       2.544503439437e-10       2.714608425061e-14      -2.898324909664e-13       0.000000000000e+00       2.062494923992e-11       9.223484157928e-12      -8.456483814607e-15 
   64       2.573945528550e-10       2.848239303233e-14      -3.331152738306e-13       0.000000000000e+00       1.990517252863e-11       9.010381994586e-12      -8.650669368535e-15 
   65       2.603700370540e-10       2.985323264986e-14      -3.780412416452e-13       0.000000000000e+00       1.921954116969e-11       8.801380285247e-12      -8.841793257483e-15 
   66       2.633767818375e-10       3.125843697688e-14      -4.246381125110e-13       0.000000000000e+00       1.856583089078e-11       8.595038098077e-12      -9.023106003443e-15 
   67       2.664137724624e-10       3.269780889599e-14      -4.729362984593e-13       0.000000000000e+00       1.794086652046e-11       8.389566934203e-12      -9.187074932284e-15 
   68       2.694798708667e-10       3.417103622526e-14      -5.229617602881e-13       0.000000000000e+00       1.734139520744e-11       8.183425308186e-12      -9.326288302578e-15 
   69       2.725767882325e-10       3.567742029623e-14      -5.747125190237e-13       0.000000000000e+00       1.676701647506e-11       7.977278646299e-12      -9.436445141979e-15 
   70       2.757066081178e-10       3.721609165971e-14      -6.281776620279e-13       0.000000000000e+00       1.621776426876e-11       7.772409202291e-12      -9.513922005300e-15 
   71       2.788708658831e-10       3.878608667344e-14      -6.833442131218e-13       0.000000000000e+00       1.569321633312e-11       7.570139807549e-12      -9.554888501702e-15 
   72       2.820705117779e-10       4.038634509900e-14      -7.401971119378e-13       0.000000000000e+00       1.519247080157e-11       7.371833272979e-12      -9.555302207743e-15 
   73       2.853058740265e-10       4.201570769864e-14      -7.987191932706e-13       0.000000000000e+00       1.471412278600e-11       7.178891790895e-12      -9.510903580424e-15 
   74       2.885766219146e-10       4.367291383218e-14      -8.588911664302e-13       0.000000000000e+00       1.425624096649e-11       6.992756336906e-12      -9.417210870241e-15 
   75       2.918817288752e-10       4.535659905382e-14      -9.206915945930e-13       0.000000000000e+00       1.381634418090e-11       6.814906071800e-12      -9.269515034233e-15 
   76       2.952200635598e-10       4.706541246003e-14      -9.840946058644e-13       0.000000000000e+00       1.339202007111e-11       6.646488211021e-12      -9.065165028836e-15 
   77       2.985923690872e-10       4.879839874988e-14      -1.049062590228e-12       0.000000000000e+00       1.298296301211e-11       6.487131033045e-12      -8.810916047580e-15 
   78       3.019995793320e-10       5.055468179291e-14      -1.115552127151e-12       0.000000000000e+00       1.258926700382e-11       6.335912325061e-12      -8.516918253595e-15 
   79       3.054421993115e-10       5.233335111055e-14      -1.183516069650e-12       0.000000000000e+00       1.221080650425e-11       6.191701669506e-12      -8.194586476943e-15 
   80       3.089202811488e-10       5.413346192856e-14      -1.252903477133e-12       0.000000000000e+00       1.184722618508e-11       6.053152268393e-12      -7.856642093767e-15 
   81       3.124334000367e-10       5.595403522949e-14      -1.323659548240e-12       0.000000000000e+00       1.149793068719e-11       5.918692767634e-12      -7.517154905425e-15 
   82       3.159806302010e-10       5.779405780516e-14      -1.395725553675e-12       0.000000000000e+00       1.116207437623e-11       5.786519081367e-12      -7.191585017635e-15 
   83       3.195605208640e-10       5.965248230909e-14      -1.469038769052e-12       0.000000000000e+00       1.083855109813e-11       5.654586216275e-12      -6.896824719620e-15 
   84       3.231716915208e-10       6.152819001979e-14      -1.543538142705e-12       0.000000000000e+00       1.052626965389e-11       5.521181545877e-12      -6.647775048109e-15 
   85       3.268147838039e-10       6.341987192310e-14      -1.619182525828e-12       0.000000000000e+00       1.022505513524e-11       5.386771737092e-12      -6.446331661057e-15 
   86       3.304907906313e-10       6.532612792034e-14      -1.695935355419e-12       0.000000000000e+00       9.934878923349e-12       5.252448438871e-12      -6.290641348879e-15 
   87       3.342004522366e-10       6.724550179888e-14      -1.773759216811e-12       0.000000000000e+00       9.655580892818e-12       5.119375628304e-12      -6.178388885152e-15 
   88       3.379442425410e-10       6.917648065790e-14      -1.852615872890e-12       0.000000000000e+00       9.386863969214e-12       4.988791207218e-12      -6.106780665172e-15 
   89       3.417223555254e-10       7.111749433412e-14      -1.932466293324e-12       0.000000000000e+00       9.128288686628e-12       4.862008598769e-12      -6.072528344502e-15 
   90       3.455346916029e-10       7.306691482757e-14      -2.013270683786e-12       0.000000000000e+00       8.879267745232e-12       4.740418344033e-12      -6.071832477524e-15 
   91       3.493808439906e-10       7.502305572732e-14      -2.094988515180e-12       0.000000000000e+00       8.639060568834e-12       4.625489698604e-12      -6.100366155991e-15 
   92       3.532600850818e-10       7.698417163723e-14      -2.177578552867e-12       0.000000000000e+00       8.406767862430e-12       4.518772229180e-12      -6.153258647575e-15 
   93       3.571716806526e-10       7.894851091691e-14      -2.260996806064e-12       0.000000000000e+00       8.181547345531e-12       4.421506329975e-12      -6.225624801283e-15 
   94       3.611159161380e-10       8.091448422562e-14      -2.345189959794e-12       0.000000000000e+00       7.963309888762e-12       4.333384296138e-12      -6.314279881962e-15 
   95       3.650932002298e-10       8.288052038360e-14      -2.430101004538e-12       0.000000000000e+00       7.752118500891e-12       4.253605000599e-12      -6.416253596413e-15 
   96       3.691037417892e-10       8.484501547100e-14      -2.515671228711e-12       0.000000000000e+00       7.547974107791e-12       4.181244650319e-12      -6.528258555998e-15 
   97       3.731475407196e-10       8.680633298545e-14      -2.601840219328e-12       0.000000000000e+00       7.350813146038e-12       4.115253014590e-12      -6.646681406846e-15 
   98       3.772243788386e-10       8.876280399971e-14      -2.688545862689e-12       0.000000000000e+00       7.160505156510e-12       4.054449653332e-12      -6.767573960050e-15 
   99       3.813338107503e-10       9.071272731919e-14      -2.775724345050e-12       0.000000000000e+00       6.976850377985e-12       3.997520145396e-12      -6.886644321876e-15 
  100       3.854751547177e-10       9.265436963964e-14      -2.863310153297e-12       0.000000000000e+00       6.799577340742e-12       3.943012316858e-12      -6.999248023963e-15 
  101       3.896474835347e-10       9.458596570466e-14      -2.951236075627e-12       0.000000000000e+00       6.628340460154e-12       3.889332469325e-12      -7.100379153529e-15 
  102       3.938496153987e-10       9.650571846337e-14      -3.039433202216e-12       0.000000000000e+00       6.462717630290e-12       3.834741608229e-12      -7.184661483571e-15 
  103       3.980801047825e-10       9.841179922794e-14      -3.127830925902e-12       0.000000000000e+00       6.302207817515e-12       3.777351671129e-12      -7.246339603072e-15 
  104       4.023375979364e-10       1.003023896321e-13      -3.216358647746e-12       0.000000000000e+00       6.146345309177e-12       3.715566263243e-12      -7.280642317992e-15 
  105       4.066219737454e-10       1.021758136218e-13      -3.304951154668e-12       0.000000000000e+00       5.995065219420e-12       3.649478793168e-12      -7.288101712417e-15 
  106       4.109333406859e-10       1.040304236716e-13      -3.393543972895e-12       0.000000000000e+00       5.848383101518e-12       3.579657052622e-12      -7.270803709879e-15 
  107       4.152716808991e-10       1.058645611852e-13      -3.482071747116e-12       0.000000000000e+00       5.706281590932e-12       3.506716674406e-12      -7.231074038311e-15 
