# dimensionless total lensed [l(l+1)/2pi] C_l's
# for l=2 to 2600, i.e. number of multipoles equal to 2599
#
# -> if you prefer output in CAMB/HealPix/LensPix units/order, set 'format' to 'camb' in input file
# -> if you don't want to see such a header, set 'headers' to 'no' in input file
# -> for CMB lensing (phi), these are C_l^phi-phi for the lensing potential.
#    Remember the conversion factors:
#    C_l^dd (deflection) = l(l+1) C_l^phi-phi
#    C_l^gg (shear/convergence) = 1/4 (l(l+1))^2 C_l^phi-phi
#
# 1:l     2:TT                     3:EE                     4:TE                     5:BB                     6:phiphi                 7:TPhi                   8:Ephi               
    2       1.450529028022e-10       4.704928432117e-15       3.807981337523e-13       2.572479881861e-19       8.654750237934e-09       4.767789157889e-10      -2.002779526429e-12 
    3       1.371608465276e-10       6.386734900371e-15       4.377517746606e-13       5.145553498368e-19       5.321104854487e-09       3.385937931736e-10      -1.569230969267e-12 
    4       1.296436656016e-10       5.875206431611e-15       4.176870720919e-13       8.577251013919e-19       3.701295388251e-09       2.567401374811e-10      -1.076144556524e-12 
    5       1.239573134303e-10       4.180424797956e-15       3.623782958087e-13       1.286838849917e-18       2.764565084403e-09       2.029417246118e-10      -6.436760544226e-13 
    6       1.200041944710e-10       2.466402084042e-15       2.967078726873e-13       1.802000479485e-18       2.160885557472e-09       1.651930600564e-10      -3.084806971839e-13 
    7       1.174433946932e-10       1.340336275005e-15       2.356562980056e-13       2.403337099494e-18       1.744405914307e-09       1.375277033863e-10      -7.845155239504e-14 
    8       1.159021950568e-10       8.153758373829e-16       1.864381814197e-13       3.090999902845e-18       1.442449155675e-09       1.165342606684e-10       5.517842553026e-14 
    9       1.151357021340e-10       6.308096339338e-16       1.514728307891e-13       3.865164808081e-18       1.215017528651e-09       1.001323124423e-10       1.108519620725e-13 
   10       1.149405302239e-10       5.494912046372e-16       1.302332232057e-13       4.726032759031e-18       1.038627200326e-09       8.707326256531e-11       1.116058800103e-13 
   11       1.151913740301e-10       4.726092299665e-16       1.204810988395e-13       5.673829562433e-18       8.759490749188e-10       7.686788460450e-11       8.091261537706e-14 
   12       1.158216794807e-10       4.032864662036e-16       1.192241090759e-13       6.708805158303e-18       7.655934177287e-10       6.810228226186e-11       3.858214538763e-14 
   13       1.167037341449e-10       3.671690304479e-16       1.234289868799e-13       7.831232238950e-18       6.749801201161e-10       6.085777414007e-11      -6.510942677814e-16 
   14       1.177531786092e-10       3.683835056704e-16       1.306336998147e-13       9.041404159646e-18       5.995662601593e-10       5.453829961903e-11      -2.860051546834e-14 
   15       1.189948984147e-10       3.923310160660e-16       1.391622596971e-13       1.033963211585e-17       5.360735790845e-10       4.921900512890e-11      -4.210872689133e-14 
   16       1.204336701326e-10       4.262182903754e-16       1.479281970382e-13       1.172624159711e-17       4.820783223495e-10       4.470826052528e-11      -4.271036884093e-14 
   17       1.219331748686e-10       4.699392481606e-16       1.564486061693e-13       1.320156816469e-17       4.357494350715e-10       4.080936357727e-11      -3.449263659791e-14 
   18       1.235429588006e-10       5.321995878245e-16       1.648057224265e-13       1.476595303948e-17       3.955295421707e-10       3.730420226944e-11      -2.267542643036e-14 
   19       1.252780811302e-10       6.177933051950e-16       1.732620033590e-13       1.641973580072e-17       3.607831062956e-10       3.418944843437e-11      -1.102046757525e-14 
   20       1.270646482204e-10       7.287041357652e-16       1.821094030978e-13       1.816325305828e-17       3.301742446782e-10       3.146318512679e-11      -3.010230736963e-15 
   21       1.289175893948e-10       8.631030709555e-16       1.914978102019e-13       1.999682738091e-17       3.032240692029e-10       2.908853962032e-11       3.886397879087e-16 
   22       1.308454551895e-10       1.017499528415e-15       2.014599418878e-13       2.192076644536e-17       2.792893753175e-10       2.697428574822e-11      -5.682718393449e-16 
   23       1.328345604033e-10       1.192066508441e-15       2.117597458821e-13       2.393535324666e-17       2.580421864346e-10       2.507341353043e-11      -4.611028772871e-15 
   24       1.348469446463e-10       1.387784540770e-15       2.220086707034e-13       2.604084515308e-17       2.389924627469e-10       2.333421003876e-11      -9.827119646592e-15 
   25       1.369042547846e-10       1.604280930275e-15       2.318547894286e-13       2.823746640403e-17       2.219171838209e-10       2.175984961104e-11      -1.464096998889e-14 
   26       1.390272026748e-10       1.840807751323e-15       2.409256945052e-13       3.052540663777e-17       2.065083998914e-10       2.035252257166e-11      -1.759150206257e-14 
   27       1.412021503807e-10       2.098278515527e-15       2.489349996416e-13       3.290481661984e-17       1.925818803074e-10       1.908750470736e-11      -1.831066903269e-14 
   28       1.433967127602e-10       2.378263019610e-15       2.556528580020e-13       3.537580754485e-17       1.798980423837e-10       1.792406181075e-11      -1.692897397491e-14 
   29       1.456186548822e-10       2.682645811380e-15       2.610837298621e-13       3.793845654769e-17       1.683924284998e-10       1.685502412365e-11      -1.411052232072e-14 
   30       1.478772980478e-10       3.013599809587e-15       2.653448622343e-13       4.059279752638e-17       1.579418017815e-10       1.587406488903e-11      -1.089655307449e-14 
   31       1.501710102009e-10       3.373290037232e-15       2.685796851841e-13       4.333882346272e-17       1.483333872737e-10       1.496713575183e-11      -8.398704289418e-15 
   32       1.525019104396e-10       3.762846953292e-15       2.708248875654e-13       4.617651195347e-17       1.395178476993e-10       1.413179050928e-11      -6.919790180617e-15 
   33       1.548638511342e-10       4.182997964066e-15       2.720964627142e-13       4.910580443867e-17       1.314331398452e-10       1.336349466399e-11      -6.508278412547e-15 
   34       1.572444768896e-10       4.634387177513e-15       2.723983091509e-13       5.212660872565e-17       1.239664694117e-10       1.265302499689e-11      -7.115129217673e-15 
   35       1.596510001003e-10       5.117811322884e-15       2.716301372402e-13       5.523883990052e-17       1.170798002043e-10       1.199760208342e-11      -8.361701594967e-15 
   36       1.620917624960e-10       5.634052551476e-15       2.696453493327e-13       5.844239076644e-17       1.107180431007e-10       1.139269604245e-11      -9.676609969808e-15 
   37       1.645695612167e-10       6.183848296402e-15       2.662910880340e-13       6.173713864297e-17       1.047985884184e-10       1.083096516767e-11      -1.048920455082e-14 
   38       1.670847815048e-10       6.768023021748e-15       2.614687123144e-13       6.512301062993e-17       9.930624686265e-11       1.031032269771e-11      -1.071774624298e-14 
   39       1.696320346698e-10       7.387392785279e-15       2.550918705877e-13       6.859993925032e-17       9.422368747062e-11       9.827944269704e-12      -1.043915912987e-14 
   40       1.721984021184e-10       8.042725981485e-15       2.470698967702e-13       7.216784520110e-17       8.950255507631e-11       9.377752064764e-12      -9.761168517893e-15 
   41       1.747694015561e-10       8.734732072736e-15       2.373318275190e-13       7.582665788421e-17       8.508033992915e-11       8.952502605767e-12      -8.821797691948e-15 
   42       1.773509432119e-10       9.464030892912e-15       2.259086030747e-13       7.957638458803e-17       8.094409855983e-11       8.551536172792e-12      -7.782300361568e-15 
   43       1.799533155877e-10       1.023116808431e-14       2.128771032464e-13       8.341706414182e-17       7.708292000776e-11       8.175081939809e-12      -6.835680949894e-15 
   44       1.825848677803e-10       1.103661875346e-14       1.983394667498e-13       8.734875007247e-17       7.346880330061e-11       7.821996395563e-12      -6.211234193504e-15 
   45       1.852513434272e-10       1.188082027791e-14       1.823870053161e-13       9.137151786906e-17       7.006667509308e-11       7.490340333738e-12      -6.108010414974e-15 
   46       1.879542518541e-10       1.276429112444e-14       1.649758849943e-13       9.548548560105e-17       6.687122089294e-11       7.179587693441e-12      -6.466721727988e-15 
   47       1.906915719737e-10       1.368754127144e-14       1.460165856280e-13       9.969080218225e-17       6.387874997849e-11       6.888880609750e-12      -7.133087705698e-15 
   48       1.934578448597e-10       1.465103724387e-14       1.254073372047e-13       1.039876441138e-16       6.107608551418e-11       6.616320602210e-12      -7.918599655978e-15 
   49       1.962438927323e-10       1.565520052262e-14       1.030333198493e-13       1.083762174082e-16       5.843985895407e-11       6.358892958733e-12      -8.598596267544e-15 
   50       1.990404419382e-10       1.670036645494e-14       7.878981926020e-14       1.128567409328e-16       5.594355474135e-11       6.113350397092e-12      -8.971334835067e-15 
   51       2.018508031977e-10       1.778665152716e-14       5.266095877196e-14       1.174293866440e-16       5.358253569481e-11       5.879322250451e-12      -9.058572227531e-15 
   52       2.046811475168e-10       1.891404731512e-14       2.466095536084e-14       1.220943264567e-16       5.135459081371e-11       5.656918528035e-12      -8.956102992719e-15 
   53       2.075368080304e-10       2.008245346675e-14      -5.187648419352e-15       1.268517504322e-16       4.925244589263e-11       5.445814648998e-12      -8.778445931847e-15 
   54       2.104221827051e-10       2.129167425264e-14      -3.685365712871e-14       1.317018678284e-16       4.726342264472e-11       5.245220968794e-12      -8.659790125883e-15 
   55       2.133405379913e-10       2.254149660416e-14      -7.030958281855e-14       1.366448682771e-16       4.537331094882e-11       5.054180109256e-12      -8.721065864740e-15 
   56       2.162935855576e-10       2.383195483204e-14      -1.055730717436e-13       1.416807916180e-16       4.357989298041e-11       4.872615257158e-12      -8.959410808546e-15 
   57       2.192816299848e-10       2.516312562763e-14      -1.426751956277e-13       1.468096275676e-16       4.188218169272e-11       4.700488908571e-12      -9.332901887268e-15 
   58       2.223035596511e-10       2.653505206845e-14      -1.816488290196e-13       1.520313522660e-16       4.027632916541e-11       4.537480564803e-12      -9.791658962192e-15 
   59       2.253567455755e-10       2.794774334360e-14      -2.225288163098e-13       1.573459277731e-16       3.875544987550e-11       4.382969030348e-12      -1.027747104325e-14 
   60       2.284369402626e-10       2.940117447919e-14      -2.653521387472e-13       1.627533015654e-16       3.730944396830e-11       4.236014710833e-12      -1.072342250635e-14 
   61       2.315399203442e-10       3.089518869677e-14      -3.101470434536e-13       1.682533856367e-16       3.592780397045e-11       4.095628096871e-12      -1.106857263367e-14 
   62       2.346670742087e-10       3.242917949895e-14      -3.568972012185e-13       1.738459894600e-16       3.460917092919e-11       3.961685684868e-12      -1.130669021237e-14 
   63       2.378208947801e-10       3.400233641252e-14      -4.055697632977e-13       1.795308710158e-16       3.335361940401e-11       3.834189167499e-12      -1.144784443882e-14 
   64       2.410033014742e-10       3.561373276119e-14      -4.561255099132e-13       1.853077547323e-16       3.215978286027e-11       3.712988938475e-12      -1.150441866527e-14 
   65       2.442155943720e-10       3.726232230162e-14      -5.085186670425e-13       1.911763303342e-16       3.102477160249e-11       3.597775470957e-12      -1.149121424763e-14 
   66       2.474584083931e-10       3.894693585951e-14      -5.626967232081e-13       1.971362516924e-16       2.994409070767e-11       3.488070695965e-12      -1.142555439342e-14 
   67       2.507316674695e-10       4.066627796558e-14      -6.186002462667e-13       2.031871356730e-16       2.891155795854e-11       3.383219380792e-12      -1.132738800964e-14 
   68       2.540351135450e-10       4.241905403889e-14      -6.761738435923e-13       2.093286200598e-16       2.792095594726e-11       3.282561725690e-12      -1.121521074165e-14 
   69       2.573701204816e-10       4.420438938155e-14      -7.354020310203e-13       2.155605535229e-16       2.697156055984e-11       3.186011036721e-12      -1.109263620362e-14 
   70       2.607381670625e-10       4.602148943024e-14      -7.962803361617e-13       2.218828422524e-16       2.606359042699e-11       3.093578154253e-12      -1.095927778058e-14 
   71       2.641402641187e-10       4.786951669618e-14      -8.588048980401e-13       2.282953946447e-16       2.519653483167e-11       3.005196675985e-12      -1.081468760947e-14 
   72       2.675769234038e-10       4.974759073998e-14      -9.229725688791e-13       2.347981216627e-16       2.436911599454e-11       2.920718970099e-12      -1.065835344974e-14 
   73       2.710481264693e-10       5.165478814647e-14      -9.887810158882e-13       2.413909371961e-16       2.357925135946e-11       2.839912188410e-12      -1.048969555405e-14 
   74       2.745532935392e-10       5.359014249952e-14      -1.056228823050e-12       2.480737584211e-16       2.282401587891e-11       2.762454279514e-12      -1.030806353897e-14 
   75       2.780912523848e-10       5.555264435696e-14      -1.125315592906e-12       2.548465061607e-16       2.209960429956e-11       2.687930001935e-12      -1.011273325561e-14 
   76       2.816607964577e-10       5.754118471029e-14      -1.196033511380e-12       2.617091756302e-16       2.140227624211e-11       2.615936284916e-12      -9.903778772310e-15 
   77       2.852625455921e-10       5.955437351651e-14      -1.268340041415e-12       2.686620627708e-16       2.073147377439e-11       2.546429305018e-12      -9.684878815367e-15 
   78       2.888973696386e-10       6.159068787529e-14      -1.342180411680e-12       2.757055800347e-16       2.008720646436e-11       2.479433751362e-12      -9.461018788611e-15 
   79       2.925658105746e-10       6.364852444342e-14      -1.417495639701e-12       2.828401914361e-16       1.946910174250e-11       2.414937376423e-12      -9.237675638280e-15 
   80       2.962680634615e-10       6.572619825079e-14      -1.494222458595e-12       2.900664143541e-16       1.887638734033e-11       2.352889251449e-12      -9.020832668565e-15 
   81       3.000039574036e-10       6.782194151636e-14      -1.572293243794e-12       2.973848213368e-16       1.830787372881e-11       2.293198021865e-12      -8.816994357172e-15 
   82       3.037729365057e-10       6.993390246410e-14      -1.651635939779e-12       3.047960419041e-16       1.776193655689e-11       2.235730162691e-12      -8.633201170872e-15 
   83       3.075740408316e-10       7.206014413896e-14      -1.732173986805e-12       3.123007643513e-16       1.723649908990e-11       2.180308233946e-12      -8.477044381059e-15 
   84       3.114063322625e-10       7.419872098516e-14      -1.813832795089e-12       3.198996767857e-16       1.672953721014e-11       2.126755768627e-12      -8.354664812720e-15 
   85       3.152702949000e-10       7.634792576104e-14      -1.896560561040e-12       3.275932750530e-16       1.624072907720e-11       2.075044308202e-12      -8.264335447568e-15 
   86       3.191666329873e-10       7.850608157692e-14      -1.980310783622e-12       3.353820261277e-16       1.577004801966e-11       2.025167657199e-12      -8.201837169579e-15 
   87       3.230958352560e-10       8.067146789327e-14      -2.065036059958e-12       3.432664268191e-16       1.531725563891e-11       1.977096471210e-12      -8.162361454668e-15 
   88       3.270581633617e-10       8.284232064356e-14      -2.150688122091e-12       3.512470045543e-16       1.488189303016e-11       1.930777296042e-12      -8.140491302767e-15 
   89       3.310536403191e-10       8.501683235720e-14      -2.237217873762e-12       3.593243181598e-16       1.446327200343e-11       1.886131606866e-12      -8.130182169909e-15 
   90       3.350820389378e-10       8.719315228237e-14      -2.324575427178e-12       3.674989586435e-16       1.406046630462e-11       1.843054847371e-12      -8.124742900315e-15 
   91       3.391428702573e-10       8.936938650899e-14      -2.412710139782e-12       3.757715499774e-16       1.367230283654e-11       1.801415468915e-12      -8.116816658472e-15 
   92       3.432353719828e-10       9.154359809153e-14      -2.501570651023e-12       3.841427498791e-16       1.329735287990e-11       1.761053969677e-12      -8.098361861220e-15 
   93       3.473587788823e-10       9.371382869233e-14      -2.591102967914e-12       3.926131703704e-16       1.293427123033e-11       1.721821954514e-12      -8.062454562209e-15 
   94       3.515132056166e-10       9.587816696811e-14      -2.681244312462e-12       4.011831240855e-16       1.258289102373e-11       1.683708121514e-12      -8.009047109250e-15 
   95       3.556988759234e-10       9.803469074384e-14      -2.771928412567e-12       4.098528410759e-16       1.224327810747e-11       1.646729535485e-12      -7.940044364794e-15 
   96       3.599158448945e-10       1.001814468215e-13      -2.863087380644e-12       4.186225453198e-16       1.191539384660e-11       1.610892889612e-12      -7.857565280319e-15 
   97       3.641639912826e-10       1.023164513984e-13      -2.954651723607e-12       4.274924544034e-16       1.159909112061e-11       1.576194093964e-12      -7.763948831186e-15 
   98       3.684430098064e-10       1.044376904854e-13      -3.046550352855e-12       4.364627792011e-16       1.129411032029e-11       1.542617864006e-12      -7.661759951506e-15 
   99       3.727524034569e-10       1.065431203253e-13      -3.138710594260e-12       4.455337235571e-16       1.100007534451e-11       1.510137309107e-12      -7.553795468998e-15 
  100       3.770914758032e-10       1.086306678111e-13      -3.231058198154e-12       4.547054839660e-16       1.071648959707e-11       1.478713521049e-12      -7.443090039850e-15 
  101       3.814593232982e-10       1.106982309043e-13      -3.323517349314e-12       4.639782492535e-16       1.044273198348e-11       1.448295162538e-12      -7.332922083581e-15 
  102       3.858548275848e-10       1.127436790531e-13      -3.416010676948e-12       4.733522002578e-16       1.017805290780e-11       1.418818055711e-12      -7.226819717906e-15 
  103       3.902766478013e-10       1.147648536108e-13      -3.508459264686e-12       4.828275095101e-16       9.921570269415e-12       1.390204770646e-12      -7.128566693590e-15 
  104       3.947235032817e-10       1.167596262856e-13      -3.600784303970e-12       4.924044568659e-16       9.672469501502e-12       1.362382675001e-12      -7.041369027090e-15 
  105       3.991950817183e-10       1.187260825809e-13      -3.692912287109e-12       5.020837948747e-16       9.430643083650e-12       1.335341746080e-12      -6.965213905329e-15 
  106       4.036912399053e-10       1.206623640302e-13      -3.784770537618e-12       5.118664324014e-16       9.196130357133e-12       1.309083837553e-12      -6.899163410846e-15 
  107       4.082117198519e-10       1.225666134218e-13      -3.876285657156e-12       5.217533240268e-16       8.968919457984e-12       1.283604709608e-12      -6.842158716080e-15 
