# dimensionless total [l(l+1)/2pi] C_l's
# for l=2 to 3100, i.e. number of multipoles equal to 3099
#
# -> if you prefer output in CAMB/HealPix/LensPix units/order, set 'format' to 'camb' in input file
# -> if you don't want to see such a header, set 'headers' to 'no' in input file
# -> for CMB lensing (phi), these are C_l^phi-phi for the lensing potential.
#    Remember the conversion factors:
#    C_l^dd (deflection) = l(l+1) C_l^phi-phi
#    C_l^gg (shear/convergence) = 1/4 (l(l+1))^2 C_l^phi-phi
#
# 1:l     2:TT                     3:EE                     4:TE                     5:BB                     6:phiphi                 7:TPhi                   8:Ephi               
    2       1.450523845119e-10       4.704671183992e-15       3.807981382073e-13       0.000000000000e+00       8.654750237934e-09       4.767789157889e-10      -2.002779526429e-12 
    3       1.371598124413e-10       6.386220343672e-15       4.377517945144e-13       0.000000000000e+00       5.321104854487e-09       3.385937931736e-10      -1.569230969267e-12 
    4       1.296419475998e-10       5.874348699875e-15       4.176871291391e-13       0.000000000000e+00       3.701295388251e-09       2.567401374811e-10      -1.076144556524e-12 
    5       1.239547465338e-10       4.179137936356e-15       3.623784257667e-13       0.000000000000e+00       2.764565084403e-09       2.029417246118e-10      -6.436760544226e-13 
    6       1.200006174711e-10       2.464600021422e-15       2.967081282240e-13       0.000000000000e+00       2.160885557472e-09       1.651930600564e-10      -3.084806971839e-13 
    7       1.174386506881e-10       1.337932793046e-15       2.356567514909e-13       0.000000000000e+00       1.744405914307e-09       1.375277033863e-10      -7.845155239504e-14 
    8       1.158961318807e-10       8.122845373009e-16       1.864389273658e-13       0.000000000000e+00       1.442449155675e-09       1.165342606684e-10       5.517842553026e-14 
    9       1.151281726735e-10       6.269439015136e-16       1.514739879510e-13       0.000000000000e+00       1.215017528651e-09       1.001323124423e-10       1.108519620725e-13 
   10       1.149313926170e-10       5.447641748095e-16       1.302349363280e-13       0.000000000000e+00       1.038627200326e-09       8.707326256531e-11       1.116058800103e-13 
   11       1.151804917476e-10       4.669337525009e-16       1.204835400423e-13       0.000000000000e+00       8.759490749188e-10       7.686788460450e-11       8.091261537706e-14 
   12       1.158089212957e-10       3.965750743763e-16       1.192274788846e-13       0.000000000000e+00       7.655934177287e-10       6.810228226186e-11       3.858214538763e-14 
   13       1.166889739977e-10       3.593339147417e-16       1.234335149113e-13       0.000000000000e+00       6.749801201161e-10       6.085777414007e-11      -6.510942677814e-16 
   14       1.177362953785e-10       3.593364946480e-16       1.306396451383e-13       0.000000000000e+00       5.995662601593e-10       5.453829961903e-11      -2.860051546834e-14 
   15       1.189757756105e-10       3.819835665168e-16       1.391699108998e-13       0.000000000000e+00       5.360735790845e-10       4.921900512890e-11      -4.210872689133e-14 
   16       1.204121955269e-10       4.144814886614e-16       1.479378720197e-13       0.000000000000e+00       4.820783223495e-10       4.470826052528e-11      -4.271036884093e-14 
   17       1.219092400816e-10       4.567238243841e-16       1.564606517028e-13       0.000000000000e+00       4.357494350715e-10       4.080936357727e-11      -3.449263659791e-14 
   18       1.235164588539e-10       5.174159429528e-16       1.648205135028e-13       0.000000000000e+00       3.955295421707e-10       3.730420226944e-11      -2.267542643036e-14 
   19       1.252489140372e-10       6.013515581689e-16       1.732799424292e-13       0.000000000000e+00       3.607831062956e-10       3.418944843437e-11      -1.102046757525e-14 
   20       1.270327144955e-10       7.105141742690e-16       1.821309190167e-13       0.000000000000e+00       3.301742446782e-10       3.146318512679e-11      -3.010230736963e-15 
   21       1.288827917215e-10       8.430746293174e-16       1.915233572569e-13       0.000000000000e+00       3.032240692029e-10       2.908853962032e-11       3.886397879087e-16 
   22       1.308076979961e-10       9.955422678791e-16       2.014899985032e-13       0.000000000000e+00       2.792893753175e-10       2.697428574822e-11      -5.682718393449e-16 
   23       1.327937496444e-10       1.168090116094e-15       2.117948134478e-13       0.000000000000e+00       2.580421864346e-10       2.507341353043e-11      -4.611028772871e-15 
   24       1.348029874906e-10       1.361698831363e-15       2.220492720697e-13       0.000000000000e+00       2.389924627469e-10       2.333421003876e-11      -9.827119646592e-15 
   25       1.368570595628e-10       1.575995953968e-15       2.319014675317e-13       0.000000000000e+00       2.219171838209e-10       2.175984961104e-11      -1.464096998889e-14 
   26       1.389766787125e-10       1.810233907986e-15       2.409790106445e-13       0.000000000000e+00       2.065083998914e-10       2.035252257166e-11      -1.759150206257e-14 
   27       1.411482080696e-10       2.065326663802e-15       2.489955318003e-13       0.000000000000e+00       1.925818803074e-10       1.908750470736e-11      -1.831066903269e-14 
   28       1.433392635566e-10       2.342844587708e-15       2.557211988356e-13       0.000000000000e+00       1.798980423837e-10       1.792406181075e-11      -1.692897397491e-14 
   29       1.455576116344e-10       2.644672861856e-15       2.611604845886e-13       0.000000000000e+00       1.683924284998e-10       1.685502412365e-11      -1.411052232072e-14 
   30       1.478125751039e-10       2.972985145741e-15       2.654306462504e-13       0.000000000000e+00       1.579418017815e-10       1.587406488903e-11      -1.089655307449e-14 
   31       1.501025235270e-10       3.329947298130e-15       2.686751213654e-13       0.000000000000e+00       1.483333872737e-10       1.496713575183e-11      -8.398704289418e-15 
   32       1.524295780744e-10       3.716690600538e-15       2.709306030393e-13       0.000000000000e+00       1.395178476993e-10       1.413179050928e-11      -6.919790180617e-15 
   33       1.547875934768e-10       4.133943342636e-15       2.722130856604e-13       0.000000000000e+00       1.314331398452e-10       1.336349466399e-11      -6.508278412547e-15 
   34       1.571642169475e-10       4.582350570745e-15       2.725264652415e-13       0.000000000000e+00       1.239664694117e-10       1.265302499689e-11      -7.115129217673e-15 
   35       1.595666638025e-10       5.062709879716e-15       2.717704449914e-13       0.000000000000e+00       1.170798002043e-10       1.199760208342e-11      -8.361701594967e-15 
   36       1.620032790129e-10       5.575804297144e-15       2.697984158209e-13       0.000000000000e+00       1.107180431007e-10       1.139269604245e-11      -9.676609969808e-15 
   37       1.644768631972e-10       6.122372140314e-15       2.664575042036e-13       0.000000000000e+00       1.047985884184e-10       1.083096516767e-11      -1.048920455082e-14 
   38       1.669878049877e-10       6.703238642515e-15       2.616490466164e-13       0.000000000000e+00       9.930624686265e-11       1.031032269771e-11      -1.071774624298e-14 
   39       1.695307192540e-10       7.319220593506e-15       2.552866633380e-13       0.000000000000e+00       9.422368747062e-11       9.827944269704e-12      -1.043915912987e-14 
   40       1.720926912469e-10       7.971087110729e-15       2.472796546370e-13       0.000000000000e+00       8.950255507631e-11       9.377752064764e-12      -9.761168517893e-15 
   41       1.746592426109e-10       8.659548360405e-15       2.375570173957e-13       0.000000000000e+00       8.508033992915e-11       8.952502605767e-12      -8.821797691948e-15 
   42       1.772362869146e-10       9.385224836029e-15       2.261496444715e-13       0.000000000000e+00       8.094409855983e-11       8.551536172792e-12      -7.782300361568e-15 
   43       1.798341159037e-10       1.014866280598e-14       2.131343612611e-13       0.000000000000e+00       7.708292000776e-11       8.175081939809e-12      -6.835680949894e-15 
   44       1.824610820206e-10       1.095033797085e-14       1.986132450912e-13       0.000000000000e+00       7.346880330061e-11       7.821996395563e-12      -6.211234193504e-15 
   45       1.851229321325e-10       1.179068833694e-14       1.826775394675e-13       0.000000000000e+00       7.006667509308e-11       7.490340333738e-12      -6.108010414974e-15 
   46       1.878211779320e-10       1.267023326792e-14       1.652833364980e-13       0.000000000000e+00       6.687122089294e-11       7.179587693441e-12      -6.466721727988e-15 
   47       1.905538003706e-10       1.358948373642e-14       1.463410351148e-13       0.000000000000e+00       6.387874997849e-11       6.888880609750e-12      -7.133087705698e-15 
   48       1.933153424310e-10       1.454890729429e-14       1.257487767908e-13       0.000000000000e+00       6.107608551418e-11       6.616320602210e-12      -7.918599655978e-15 
   49       1.960966281066e-10       1.554892648183e-14       1.033916452811e-13       0.000000000000e+00       5.843985895407e-11       6.358892958733e-12      -8.598596267544e-15 
   50       1.988883853144e-10       1.658987786121e-14       7.916482346848e-14       0.000000000000e+00       5.594355474135e-11       6.113350397092e-12      -8.971334835067e-15 
   51       2.016939259340e-10       1.767187969764e-14       5.305233068907e-14       0.000000000000e+00       5.358253569481e-11       5.879322250451e-12      -9.058572227531e-15 
   52       2.045194218604e-10       1.879492561209e-14       2.506827446783e-14       0.000000000000e+00       5.135459081371e-11       5.656918528035e-12      -8.956102992719e-15 
   53       2.073702068934e-10       1.995891745612e-14      -4.764919251465e-15       0.000000000000e+00       4.925244589263e-11       5.445814648998e-12      -8.778445931847e-15 
   54       2.102506794315e-10       2.116366186816e-14      -3.641617897154e-14       0.000000000000e+00       4.726342264472e-11       5.245220968794e-12      -8.659790125883e-15 
   55       2.131641063761e-10       2.240894836930e-14      -6.985814532538e-14       0.000000000000e+00       4.537331094882e-11       5.054180109256e-12      -8.721065864740e-15 
   56       2.161122007173e-10       2.369481425865e-14      -1.051085885261e-13       0.000000000000e+00       4.357989298041e-11       4.872615257158e-12      -8.959410808546e-15 
   57       2.190952685727e-10       2.502133949175e-14      -1.421987068986e-13       0.000000000000e+00       4.188218169272e-11       4.700488908571e-12      -9.332901887268e-15 
   58       2.221121998288e-10       2.638857064561e-14      -1.811615069615e-13       0.000000000000e+00       4.027632916541e-11       4.537480564803e-12      -9.791658962192e-15 
   59       2.251603669865e-10       2.779652065182e-14      -2.220319705062e-13       0.000000000000e+00       3.875544987550e-11       4.382969030348e-12      -1.027747104325e-14 
   60       2.282355240060e-10       2.924516852978e-14      -2.648472216756e-13       0.000000000000e+00       3.730944396830e-11       4.236014710833e-12      -1.072342250635e-14 
   61       2.313334493399e-10       3.073436152999e-14      -3.096356533426e-13       0.000000000000e+00       3.592780397045e-11       4.095628096871e-12      -1.106857263367e-14 
   62       2.344555348356e-10       3.226349650037e-14      -3.563810761643e-13       0.000000000000e+00       3.460917092919e-11       3.961685684868e-12      -1.130669021237e-14 
   63       2.376042775300e-10       3.383176620023e-14      -4.050507822604e-13       0.000000000000e+00       3.335361940401e-11       3.834189167499e-12      -1.144784443882e-14 
   64       2.407816012537e-10       3.543824728228e-14      -4.556056962153e-13       0.000000000000e+00       3.215978286027e-11       3.712988938475e-12      -1.150441866527e-14 
   65       2.439888108174e-10       3.708189692939e-14      -5.080001918435e-13       0.000000000000e+00       3.102477160249e-11       3.597775470957e-12      -1.149121424763e-14 
   66       2.472265461992e-10       3.876154949127e-14      -5.621819089560e-13       0.000000000000e+00       2.994409070767e-11       3.488070695965e-12      -1.142555439342e-14 
   67       2.504947367308e-10       4.047591312121e-14      -6.180915701259e-13       0.000000000000e+00       2.891155795854e-11       3.383219380792e-12      -1.132738800964e-14 
   68       2.537931299614e-10       4.222369655527e-14      -6.756739404883e-13       0.000000000000e+00       2.792095594726e-11       3.282561725690e-12      -1.121521074165e-14 
   69       2.571231050910e-10       4.400402679814e-14      -7.349136954990e-13       0.000000000000e+00       2.697156055984e-11       3.186011036721e-12      -1.109263620362e-14 
   70       2.604861463741e-10       4.581611041836e-14      -7.958065251505e-13       0.000000000000e+00       2.606359042699e-11       3.093578154253e-12      -1.095927778058e-14 
   71       2.638832703964e-10       4.765911086003e-14      -8.583487339157e-13       0.000000000000e+00       2.519653483167e-11       3.005196675985e-12      -1.081468760947e-14 
   72       2.673149949593e-10       4.953214840794e-14      -9.225373425013e-13       0.000000000000e+00       2.436911599454e-11       2.920718970099e-12      -1.065835344974e-14 
   73       2.707813079646e-10       5.143430015279e-14      -9.883701896018e-13       0.000000000000e+00       2.357925135946e-11       2.839912188410e-12      -1.048969555405e-14 
   74       2.742816362984e-10       5.336459995634e-14      -1.055846033654e-12       0.000000000000e+00       2.282401587891e-11       2.762454279514e-12      -1.030806353897e-14 
   75       2.778148147156e-10       5.532203841656e-14      -1.124964654590e-12       0.000000000000e+00       2.209960429956e-11       2.687930001935e-12      -1.011273325561e-14 
   76       2.813796433328e-10       5.730550638748e-14      -1.195718418043e-12       0.000000000000e+00       2.140227624211e-11       2.615936284916e-12      -9.903778772310e-15 
   77       2.849767462552e-10       5.931361372511e-14      -1.268064967075e-12       0.000000000000e+00       2.073147377439e-11       2.546429305018e-12      -9.684878815367e-15 
   78       2.886069969231e-10       6.134483727210e-14      -1.341949712382e-12       0.000000000000e+00       2.008720646436e-11       2.479433751362e-12      -9.461018788611e-15 
   79       2.922709408335e-10       6.339757319786e-14      -1.417313855941e-12       0.000000000000e+00       1.946910174250e-11       2.414937376423e-12      -9.237675638280e-15 
   80       2.959687764942e-10       6.547013580630e-14      -1.494094317690e-12       0.000000000000e+00       1.887638734033e-11       2.352889251449e-12      -9.020832668565e-15 
   81       2.997003363784e-10       6.756075634354e-14      -1.572223662215e-12       0.000000000000e+00       1.830787372881e-11       2.293198021865e-12      -8.816994357172e-15 
   82       3.034650678787e-10       6.966758180558e-14      -1.651630025433e-12       0.000000000000e+00       1.776193655689e-11       2.235730162691e-12      -8.633201170872e-15 
   83       3.072620142612e-10       7.178867374607e-14      -1.732237041280e-12       0.000000000000e+00       1.723649908990e-11       2.180308233946e-12      -8.477044381059e-15 
   84       3.110902405917e-10       7.392208537512e-14      -1.813970310168e-12       0.000000000000e+00       1.672953721014e-11       2.126755768627e-12      -8.354664812720e-15 
   85       3.149502343609e-10       7.606611015305e-14      -1.896778197057e-12       0.000000000000e+00       1.624072907720e-11       2.075044308202e-12      -8.264335447568e-15 
   86       3.188427032130e-10       7.821907241383e-14      -1.980614362877e-12       0.000000000000e+00       1.577004801966e-11       2.025167657199e-12      -8.201837169579e-15 
   87       3.227681392223e-10       8.037925285987e-14      -2.065431565395e-12       0.000000000000e+00       1.531725563891e-11       1.977096471210e-12      -8.162361454668e-15 
   88       3.267268073260e-10       8.254488868549e-14      -2.151181695844e-12       0.000000000000e+00       1.488189303016e-11       1.930777296042e-12      -8.140491302767e-15 
   89       3.307187337566e-10       8.471417370049e-14      -2.237815815557e-12       0.000000000000e+00       1.446327200343e-11       1.886131606866e-12      -8.130182169909e-15 
   90       3.347436944748e-10       8.688525845366e-14      -2.325284192598e-12       0.000000000000e+00       1.406046630462e-11       1.843054847371e-12      -8.124742900315e-15 
   91       3.388012036026e-10       8.905625035631e-14      -2.413536338386e-12       0.000000000000e+00       1.367230283654e-11       1.801415468915e-12      -8.116816658472e-15 
   92       3.428905018555e-10       9.122521380583e-14      -2.502521044332e-12       0.000000000000e+00       1.329735287990e-11       1.761053969677e-12      -8.098361861220e-15 
   93       3.470108275958e-10       9.339019123176e-14      -2.592184461941e-12       0.000000000000e+00       1.293427123033e-11       1.721821954514e-12      -8.062454562209e-15 
   94       3.511623017488e-10       9.554926958666e-14      -2.682463933255e-12       0.000000000000e+00       1.258289102373e-11       1.683708121514e-12      -8.009047109250e-15 
   95       3.553451552105e-10       9.770052413043e-14      -2.773293295916e-12       0.000000000000e+00       1.224327810747e-11       1.646729535485e-12      -7.940044364794e-15 
   96       3.595594505017e-10       9.984199880397e-14      -2.864604766658e-12       0.000000000000e+00       1.191539384660e-11       1.610892889612e-12      -7.857565280319e-15 
   97       3.638050740797e-10       1.019717066399e-13      -2.956328951079e-12       0.000000000000e+00       1.159909112061e-11       1.576194093964e-12      -7.763948831186e-15 
   98       3.680817286510e-10       1.040876301733e-13      -3.048394853418e-12       0.000000000000e+00       1.129411032029e-11       1.542617864006e-12      -7.661759951506e-15 
   99       3.723889254830e-10       1.061877218526e-13      -3.140729886322e-12       0.000000000000e+00       1.100007534451e-11       1.510137309107e-12      -7.553795468998e-15 
  100       3.767259767170e-10       1.082699044499e-13      -3.233259880629e-12       0.000000000000e+00       1.071648959707e-11       1.478713521049e-12      -7.443090039850e-15 
  101       3.810919876795e-10       1.103320714721e-13      -3.325909095131e-12       0.000000000000e+00       1.044273198348e-11       1.448295162538e-12      -7.332922083581e-15 
  102       3.854858491953e-10       1.123720875715e-13      -3.418600226355e-12       0.000000000000e+00       1.017805290780e-11       1.418818055711e-12      -7.226819717906e-15 
  103       3.899062298992e-10       1.143877889564e-13      -3.511254418335e-12       0.000000000000e+00       9.921570269415e-12       1.390204770646e-12      -7.128566693590e-15 
  104       3.943518580557e-10       1.163770413795e-13      -3.603792917539e-12       0.000000000000e+00       9.672469501502e-12       1.362382675001e-12      -7.041369027090e-15 
  105       3.988224269332e-10       1.183379221376e-13      -3.696142271213e-12       0.000000000000e+00       9.430643083650e-12       1.335341746080e-12      -6.965213905329e-15 
  106       4.033177979695e-10       1.202685635379e-13      -3.788229852751e-12       0.000000000000e+00       9.196130357133e-12       1.309083837553e-12      -6.899163410846e-15 
  107       4.078377177347e-10       1.221670985461e-13      -3.879982306757e-12       0.000000000000e+00       8.968919457984e-12       1.283604709608e-12      -6.842158716080e-15 
