# dimensionless total [l(l+1)/2pi] C_l's
# for l=2 to 3100, i.e. number of multipoles equal to 3099
#
# -> if you prefer output in CAMB/HealPix/LensPix units/order, set 'format' to 'camb' in input file
# -> if you don't want to see such a header, set 'headers' to 'no' in input file
# -> for CMB lensing (phi), these are C_l^phi-phi for the lensing potential.
#    Remember the conversion factors:
#    C_l^dd (deflection) = l(l+1) C_l^phi-phi
#    C_l^gg (shear/convergence) = 1/4 (l(l+1))^2 C_l^phi-phi
#
# 1:l     2:TT                     3:EE                     4:TE                     5:BB                     6:phiphi                 7:TPhi                   8:Ephi               
    2       1.450503447957e-10       4.704196844652e-15       3.806457021095e-13       0.000000000000e+00       8.630075841876e-09       4.769328729261e-10      -2.003249482353e-12 
    3       1.371568581843e-10       6.387440547627e-15       4.378178312663e-13       0.000000000000e+00       5.325695944698e-09       3.386734010141e-10      -1.569309707150e-12 
    4       1.296421211779e-10       5.876164904700e-15       4.178116779840e-13       0.000000000000e+00       3.704022058844e-09       2.567410475095e-10      -1.076210596816e-12 
    5       1.239581365968e-10       4.181550558147e-15       3.625810472445e-13       0.000000000000e+00       2.765106203530e-09       2.029208907019e-10      -6.437738322774e-13 
    6       1.200067915005e-10       2.467362368266e-15       2.970110227041e-13       0.000000000000e+00       2.160789239033e-09       1.651697273074e-10      -3.085601279294e-13 
    7       1.174467386046e-10       1.340839456122e-15       2.360514832313e-13       0.000000000000e+00       1.744008654068e-09       1.375116809867e-10      -7.851939129365e-14 
    8       1.159068966264e-10       8.152456949069e-16       1.869314388347e-13       0.000000000000e+00       1.442110159600e-09       1.165379235287e-10       5.511601103503e-14 
    9       1.151415765409e-10       6.299206960867e-16       1.520784046541e-13       0.000000000000e+00       1.215032307727e-09       1.001529449703e-10       1.107952389466e-13 
   10       1.149472556747e-10       5.477775882979e-16       1.309463811054e-13       0.000000000000e+00       1.038995493251e-09       8.709442616150e-11       1.115589766299e-13 
   11       1.151986416664e-10       4.700707288904e-16       1.213123711029e-13       0.000000000000e+00       8.758542756981e-10       7.687249618825e-11       8.087427254881e-14 
   12       1.158283786049e-10       3.999877262895e-16       1.201705364861e-13       0.000000000000e+00       7.655063012979e-10       6.809982708298e-11       3.852824252669e-14 
   13       1.167106694718e-10       3.632479883829e-16       1.244938246993e-13       0.000000000000e+00       6.748997192934e-10       6.085109747030e-11      -7.366379584781e-16 
   14       1.177597892149e-10       3.639975239746e-16       1.318241147302e-13       0.000000000000e+00       5.994916234606e-10       5.452980992417e-11      -2.872117534155e-14 
   15       1.190022120657e-10       3.876635057336e-16       1.404597528354e-13       0.000000000000e+00       5.360039065740e-10       4.921042919462e-11      -4.224288531137e-14 
   16       1.204394792778e-10       4.215056577282e-16       1.493326526420e-13       0.000000000000e+00       4.820130665387e-10       4.469930017847e-11      -4.283372066090e-14 
   17       1.219392757159e-10       4.653929618111e-16       1.579770358869e-13       0.000000000000e+00       4.356881015188e-10       4.080004156642e-11      -3.459499971415e-14 
   18       1.235484713567e-10       5.280376140141e-16       1.664380702898e-13       0.000000000000e+00       3.954716074384e-10       3.729644336142e-11      -2.276488379238e-14 
   19       1.252817614765e-10       6.142745921229e-16       1.749922047946e-13       0.000000000000e+00       3.607285455583e-10       3.418478912713e-11      -1.111230052278e-14 
   20       1.270665800902e-10       7.261256248005e-16       1.839614090469e-13       0.000000000000e+00       3.301226555232e-10       3.146165766056e-11      -3.121383993041e-15 
   21       1.289178983028e-10       8.617463116002e-16       1.934614225018e-13       0.000000000000e+00       3.031750701666e-10       2.908891286182e-11       2.488977219931e-16 
   22       1.308439000400e-10       1.017614878649e-15       2.034779648288e-13       0.000000000000e+00       2.792427792751e-10       2.697428225413e-11      -7.337238718106e-16 
   23       1.328309600776e-10       1.193935474862e-15       2.138138010550e-13       0.000000000000e+00       2.579978309133e-10       2.507118618611e-11      -4.791834014546e-15 
   24       1.348413504243e-10       1.391757363544e-15       2.241386615167e-13       0.000000000000e+00       2.389501824069e-10       2.332912285568e-11      -1.000781664677e-14 
   25       1.368969802659e-10       1.610834112914e-15       2.340672600207e-13       0.000000000000e+00       2.218768187156e-10       2.175292151415e-11      -1.480853633092e-14 
   26       1.390186841467e-10       1.850515948010e-15       2.431716103868e-13       0.000000000000e+00       2.064698156194e-10       2.034626429773e-11      -1.773921553192e-14 
   27       1.411921166658e-10       2.111526342704e-15       2.511850052082e-13       0.000000000000e+00       1.925449530118e-10       1.908331279408e-11      -1.843999479950e-14 
   28       1.433840226467e-10       2.395192158534e-15       2.579173195667e-13       0.000000000000e+00       1.798626650968e-10       1.792147895291e-11      -1.704977297524e-14 
   29       1.456023532968e-10       2.703516571612e-15       2.633689500667e-13       0.000000000000e+00       1.683584964326e-10       1.685342455390e-11      -1.423360855384e-14 
   30       1.478570595409e-10       3.038947406276e-15       2.676360374351e-13       0.000000000000e+00       1.579092212896e-10       1.587324694444e-11      -1.103083315972e-14 
   31       1.501471451097e-10       3.403909211817e-15       2.708417767073e-13       0.000000000000e+00       1.483020863839e-10       1.496730444240e-11      -8.549964545612e-15 
   32       1.524747105372e-10       3.799466316127e-15       2.730279784681e-13       0.000000000000e+00       1.394877551018e-10       1.413297787929e-11      -7.088685600944e-15 
   33       1.548333454317e-10       4.226144357860e-15       2.742260574551e-13       0.000000000000e+00       1.314041858612e-10       1.336532689893e-11      -6.688633070024e-15 
   34       1.572104361685e-10       4.684390509422e-15       2.744542486389e-13       0.000000000000e+00       1.239385925282e-10       1.265475585369e-11      -7.294620517109e-15 
   35       1.596132345573e-10       5.175034536531e-15       2.736068341153e-13       0.000000000000e+00       1.170529407905e-10       1.199859020635e-11      -8.530507739231e-15 
   36       1.620502288463e-10       5.698975781628e-15       2.715240301699e-13       0.000000000000e+00       1.106921468514e-10       1.139259839821e-11      -9.830973349727e-15 
   37       1.645243452066e-10       6.257072918161e-15       2.680408764652e-13       0.000000000000e+00       1.047736101001e-10       1.082976318154e-11      -1.063149907345e-14 
   38       1.670359104945e-10       6.850197618968e-15       2.630619069079e-13       0.000000000000e+00       9.928214103275e-11       1.030815505754e-11      -1.085136067590e-14 
   39       1.695794029283e-10       7.479192537521e-15       2.565097435526e-13       0.000000000000e+00       9.420040878582e-11       9.825073920077e-12      -1.056689842127e-14 
   40       1.721417389356e-10       8.144852951388e-15       2.483048677517e-13       0.000000000000e+00       8.948006259834e-11       9.374586399126e-12      -9.885021207429e-15 
   41       1.747082953007e-10       8.847908895655e-15       2.383859144436e-13       0.000000000000e+00       8.505859928386e-11       8.949556724577e-12      -8.942911221422e-15 
   42       1.772850601087e-10       9.588972108430e-15       2.267789201281e-13       0.000000000000e+00       8.092307585993e-11       8.549200416649e-12      -7.901702481783e-15 
   43       1.798824836754e-10       1.036856653482e-14       2.135503236756e-13       0.000000000000e+00       7.706258200053e-11       8.173523275643e-12      -6.954469203467e-15 
   44       1.825091102053e-10       1.118713749249e-14       1.987896533374e-13       0.000000000000e+00       7.344912004747e-11       7.821109491074e-12      -6.330559843431e-15 
   45       1.851708606573e-10       1.204509313460e-14       1.825766862436e-13       0.000000000000e+00       7.004762108453e-11       7.489771724916e-12      -6.229023615777e-15 
   46       1.878692279385e-10       1.294295340606e-14       1.648683273012e-13       0.000000000000e+00       6.685277038615e-11       7.179012085864e-12      -6.590390349773e-15 
   47       1.906021074044e-10       1.388123855564e-14       1.455799989649e-13       0.000000000000e+00       6.386087676448e-11       6.888095518178e-12      -7.260102031073e-15 
   48       1.933639367450e-10       1.486042590051e-14       1.246160571067e-13       0.000000000000e+00       6.105876443984e-11       6.615273009772e-12      -8.049307335061e-15 
   49       1.961454138303e-10       1.588094830074e-14       1.018690561693e-13       0.000000000000e+00       5.842306756422e-11       6.357707467604e-12      -8.732933544248e-15 
   50       1.989371548727e-10       1.694314974585e-14       7.724106040227e-14       0.000000000000e+00       5.592727385796e-11       6.112307522355e-12      -9.108848203785e-15 
   51       2.017424941283e-10       1.804714144170e-14       5.071610201064e-14       0.000000000000e+00       5.356674618856e-11       5.878667729047e-12      -9.198748969377e-15 
   52       2.045676708075e-10       1.919290402299e-14       2.230612072357e-14       0.000000000000e+00       5.133927335732e-11       5.656798321718e-12      -9.098470228746e-15 
   53       2.074180979832e-10       2.038032356726e-14      -7.969067859778e-15       0.000000000000e+00       4.923758186979e-11       5.446256383656e-12      -8.922583530627e-15 
   54       2.102982658620e-10       2.160918805106e-14      -4.008146965455e-14       0.000000000000e+00       4.724899512345e-11       5.246114448871e-12      -8.805344313370e-15 
   55       2.132115227840e-10       2.287926820759e-14      -7.400655237846e-14       0.000000000000e+00       4.535930498503e-11       5.055292391910e-12      -8.867736880850e-15 
   56       2.161595761065e-10       2.419059174033e-14      -1.097622459474e-13       0.000000000000e+00       4.356629356932e-11       4.873721578199e-12      -9.106853544897e-15 
   57       2.191426979021e-10       2.554323102272e-14      -1.473791005604e-13       0.000000000000e+00       4.186897360100e-11       4.701414916656e-12      -9.480693156536e-15 
   58       2.221597370840e-10       2.693722441518e-14      -1.868893517971e-13       0.000000000000e+00       4.026349748145e-11       4.538112040194e-12      -9.939289200155e-15 
   59       2.252080179142e-10       2.837257600966e-14      -2.283270833099e-13       0.000000000000e+00       3.874298059554e-11       4.383262061291e-12      -1.042433567460e-14 
   60       2.282832385110e-10       2.984925537427e-14      -2.717283895169e-13       0.000000000000e+00       3.729732461841e-11       4.236006327554e-12      -1.086881297428e-14 
   61       2.313811281915e-10       3.136709795308e-14      -3.171205857006e-13       0.000000000000e+00       3.591602370760e-11       4.095427972045e-12      -1.121171162722e-14 
   62       2.345030838157e-10       3.292548071906e-14      -3.644866401119e-13       0.000000000000e+00       3.459771886215e-11       3.961405032073e-12      -1.144691184073e-14 
   63       2.376516242379e-10       3.452357293340e-14      -4.137930106373e-13       0.000000000000e+00       3.334248435658e-11       3.833919092997e-12      -1.158466154503e-14 
   64       2.408286983304e-10       3.616042572584e-14      -4.649997117397e-13       0.000000000000e+00       3.214895367387e-11       3.712796785709e-12      -1.163754953221e-14 
   65       2.440356392970e-10       3.783496868711e-14      -5.180601296330e-13       0.000000000000e+00       3.101423745687e-11       3.597701007399e-12      -1.162061038092e-14 
   66       2.472731189882e-10       3.954600646137e-14      -5.729208374568e-13       0.000000000000e+00       2.993384145979e-11       3.488122142320e-12      -1.155142938106e-14 
   67       2.505411022147e-10       4.129221533865e-14      -6.295214104516e-13       0.000000000000e+00       2.890158449971e-11       3.383369282550e-12      -1.145024745843e-14 
   68       2.538393661945e-10       4.307227064618e-14      -6.878055201102e-13       0.000000000000e+00       2.791125022814e-11       3.282751367817e-12      -1.133581003780e-14 
   69       2.571692832353e-10       4.488526651366e-14      -7.477572401616e-13       0.000000000000e+00       2.696211450080e-11       3.186182850274e-12      -1.121170235626e-14 
   70       2.605323188583e-10       4.673037543283e-14      -8.093717989077e-13       0.000000000000e+00       2.605439574887e-11       3.093685545822e-12      -1.107742109417e-14 
   71       2.639294679543e-10       4.860672492297e-14      -8.726450529319e-13       0.000000000000e+00       2.518758322587e-11       3.005205721929e-12      -1.093238159675e-14 
   72       2.673612235513e-10       5.051339746867e-14      -9.375735907390e-13       0.000000000000e+00       2.436039930228e-11       2.920610175653e-12      -1.077591394813e-14 
   73       2.708275455826e-10       5.244943045744e-14      -1.004154836395e-12       0.000000000000e+00       2.357076176031e-11       2.839682311674e-12      -1.060725904531e-14 
   74       2.743278296542e-10       5.441381611744e-14      -1.072387153165e-12       0.000000000000e+00       2.281574608851e-11       2.762118220323e-12      -1.042556467218e-14 
   75       2.778608758132e-10       5.640550145512e-14      -1.142269947156e-12       0.000000000000e+00       2.209154777657e-11       2.687522755610e-12      -1.022988157353e-14 
   76       2.814254541991e-10       5.842333447840e-14      -1.213795186961e-12       0.000000000000e+00       2.139442718069e-11       2.615509755926e-12      -1.002009058599e-14 
   77       2.850221901245e-10       6.046589168249e-14      -1.286919948160e-12       0.000000000000e+00       2.072382638753e-11       2.546032474876e-12      -9.799887894874e-15 
   78       2.886519676022e-10       6.253161884585e-14      -1.361589027209e-12       0.000000000000e+00       2.007975486323e-11       2.479106560621e-12      -9.574339549759e-15 
   79       2.923153442725e-10       6.461888080899e-14      -1.437743010061e-12       0.000000000000e+00       1.946184003259e-11       2.414709501179e-12      -9.349013621994e-15 
   80       2.960125324095e-10       6.672596031066e-14      -1.515318199790e-12       0.000000000000e+00       1.886930972214e-11       2.352778837983e-12      -9.129995370786e-15 
   81       2.997433799294e-10       6.885105682407e-14      -1.594246544199e-12       0.000000000000e+00       1.830097460328e-11       2.293210379441e-12      -8.923902409277e-15 
   82       3.035073513974e-10       7.099228539311e-14      -1.674455563446e-12       0.000000000000e+00       1.775521063540e-11       2.235856414493e-12      -8.737899870625e-15 
   83       3.073035090354e-10       7.314767546858e-14      -1.755868277662e-12       0.000000000000e+00       1.722994150892e-11       2.180523926173e-12      -8.579715574082e-15 
   84       3.111309338219e-10       7.531524634015e-14      -1.838409604613e-12       0.000000000000e+00       1.672314352341e-11       2.127023322282e-12      -8.455607934046e-15 
   85       3.149901106055e-10       7.749325034950e-14      -1.922026929863e-12       0.000000000000e+00       1.623449484687e-11       2.075327822626e-12      -8.363849401331e-15 
   86       3.188817388598e-10       7.967996805054e-14      -2.006672829862e-12       0.000000000000e+00       1.576396875020e-11       2.025437342310e-12      -8.300185497871e-15 
   87       3.228063015811e-10       8.187363532019e-14      -2.092298940905e-12       0.000000000000e+00       1.531132683464e-11       1.977329400330e-12      -8.259767064098e-15 
   88       3.267640536928e-10       8.407244348197e-14      -2.178855995499e-12       0.000000000000e+00       1.487611025529e-11       1.930958182157e-12      -8.237131017339e-15 
   89       3.307550104490e-10       8.627453942950e-14      -2.266293858717e-12       0.000000000000e+00       1.445763094465e-11       1.886253602325e-12      -8.226181110216e-15 
   90       3.347789358385e-10       8.847802575009e-14      -2.354561564555e-12       0.000000000000e+00       1.405496283610e-11       1.843120367017e-12      -8.220168689045e-15 
   91       3.388353309890e-10       9.068096084826e-14      -2.443607352296e-12       0.000000000000e+00       1.366693308748e-11       1.801437036649e-12      -8.211673452232e-15 
   92       3.429234225706e-10       9.288135906928e-14      -2.533378702861e-12       0.000000000000e+00       1.329211330459e-11       1.761055088457e-12      -8.192584208672e-15 
   93       3.470424355688e-10       9.507721399968e-14      -2.623820507183e-12       0.000000000000e+00       1.292915859000e-11       1.721835298792e-12      -8.155916359885e-15 
   94       3.511924837194e-10       9.726657210914e-14      -2.714869177216e-12       0.000000000000e+00       1.257790208347e-11       1.683765185434e-12      -8.101618825122e-15 
   95       3.553737921780e-10       9.944747046433e-14      -2.806457712318e-12       0.000000000000e+00       1.223840957962e-11       1.646857577614e-12      -8.031608966214e-15 
   96       3.595864174948e-10       1.016179149745e-13      -2.898517498905e-12       0.000000000000e+00       1.191064242225e-11       1.611114450707e-12      -7.948019572887e-15 
   97       3.638302399214e-10       1.037758808334e-13      -2.990978321155e-12       0.000000000000e+00       1.159445350238e-11       1.576526501096e-12      -7.853204833566e-15 
   98       3.681049557185e-10       1.059193129605e-13      -3.083768371738e-12       0.000000000000e+00       1.128958325633e-11       1.543072721046e-12      -7.749746306180e-15 
   99       3.724100694636e-10       1.080461264432e-13      -3.176814262522e-12       0.000000000000e+00       1.099565566377e-11       1.510719973566e-12      -7.640458888963e-15 
  100       3.767448863578e-10       1.101542069783e-13      -3.270041035296e-12       0.000000000000e+00       1.071217424580e-11       1.479422567277e-12      -7.528396791257e-15 
  101       3.811085045337e-10       1.122414113137e-13      -3.363372172483e-12       0.000000000000e+00       1.043851806300e-11       1.449121831281e-12      -7.416859504320e-15 
  102       3.854998073627e-10       1.143055676899e-13      -3.456729607862e-12       0.000000000000e+00       1.017393771353e-11       1.419745690030e-12      -7.309397772125e-15 
  103       3.899174557623e-10       1.163444762821e-13      -3.550033737276e-12       0.000000000000e+00       9.917551331143e-12       1.391208238188e-12      -7.209819562165e-15 
  104       3.943601707425e-10       1.183559677259e-13      -3.643205050097e-12       0.000000000000e+00       9.668544564919e-12       1.363429813448e-12      -7.121351683303e-15 
  105       3.988276410818e-10       1.203380867486e-13      -3.736169251503e-12       0.000000000000e+00       9.426809903883e-12       1.336401218752e-12      -7.043982797255e-15 
  106       4.033197244948e-10       1.222889342829e-13      -3.828852855341e-12       0.000000000000e+00       9.192386657102e-12       1.310127423375e-12      -6.976770947091e-15 
  107       4.078361638935e-10       1.242066126646e-13      -3.921181653365e-12       0.000000000000e+00       8.965262945070e-12       1.284607642218e-12      -6.918652591206e-15 
