# Matter power spectrum P(k) at redshift z=3
# for k=1.09832e-05 to 1.4771 h/Mpc,
# number of wavenumbers equal to 611
#    1:k (h/Mpc)              2:P (Mpc/h)^3        
       1.098323011996e-05       4.034138361692e+00 
       2.456609863059e-05       8.788633540372e+00 
       3.820196235635e-05       1.347083648747e+01 
       5.193162748028e-05       1.812890761212e+01 
       6.579664891404e-05       2.279141439273e+01 
       7.983974213527e-05       2.748051360430e+01 
       9.410520958009e-05       3.221567401100e+01 
       1.086393878414e-04       3.701522565553e+01 
       1.234911219658e-04       4.189717576479e+01 
       1.387122731757e-04       4.687972253079e+01 
       1.543582663150e-04       5.198162944709e+01 
       1.704886831533e-04       5.722253184117e+01 
       1.871679072897e-04       6.262310260960e+01 
       2.044658256238e-04       6.820573380599e+01 
       2.224585900278e-04       7.399417875862e+01 
       2.412294407036e-04       8.001421066574e+01 
       2.608695894089e-04       8.629378880897e+01 
       2.814791558649e-04       9.286332506331e+01 
       3.031681436911e-04       9.975594909729e+01 
       3.260574325438e-04       1.070077641234e+02 
       3.502797500845e-04       1.146580804062e+02 
       3.759805703595e-04       1.227496079924e+02 
       4.033188636791e-04       1.313285831857e+02 
       4.324675972034e-04       1.404476788654e+02 
       4.636138561061e-04       1.501545456639e+02 
       4.969584248303e-04       1.605082426089e+02 
       5.327146411634e-04       1.715676973545e+02 
       5.711063200286e-04       1.833935394470e+02 
       6.123645494383e-04       1.960462682024e+02 
       6.567232006885e-04       2.095869823228e+02 
       7.044130812671e-04       2.240719377556e+02 
       7.556548002151e-04       2.395521154206e+02 
       8.106506090063e-04       2.560636615591e+02 
       8.695757060313e-04       2.736520064014e+02 
       9.325697082770e-04       2.923291114845e+02 
       9.997291420844e-04       3.120980420628e+02 
       1.071101826599e-03       3.329464210717e+02 
       1.146683880547e-03       3.548409806027e+02 
       1.226419780167e-03       3.777352580997e+02 
       1.310205489570e-03       4.015698857935e+02 
       1.397894267954e-03       4.262663262099e+02 
       1.477104874446e-03       4.483586063454e+02 
       1.489304429660e-03       4.517434448021e+02 
       1.584228161605e-03       4.779157773750e+02 
       1.682440505337e-03       5.046890003823e+02 
       1.783707756016e-03       5.319719156766e+02 
       1.887794756863e-03       5.596736485783e+02 
       1.994470810898e-03       5.877065062588e+02 
       2.103514143470e-03       6.159737827918e+02 
       2.214715003793e-03       6.444452079370e+02 
       2.327877586896e-03       6.730188847442e+02 
       2.442820997860e-03       7.016489346077e+02 
       2.559379482563e-03       7.302767494742e+02 
       2.677402128266e-03       7.588561232628e+02 
       2.796752205129e-03       7.873344459897e+02 
       2.917306284670e-03       8.156814956534e+02 
       3.038953238176e-03       8.438671268980e+02 
       3.161593189676e-03       8.718554761592e+02 
       3.285136475078e-03       8.996276512448e+02 
       3.409502641281e-03       9.271598126596e+02 
       3.534619505791e-03       9.544339575040e+02 
       3.660422287884e-03       9.814403973735e+02 
       3.786852815679e-03       1.008147066588e+03 
       3.913858809126e-03       1.034564150279e+03 
       4.041393236032e-03       1.060669976401e+03 
       4.169413736633e-03       1.086462702200e+03 
       4.297882111331e-03       1.111936409118e+03 
       4.426763865857e-03       1.137083134068e+03 
       4.556027808186e-03       1.161897062877e+03 
       4.685645691715e-03       1.186379465900e+03 
       4.815591899606e-03       1.210525319682e+03 
       4.945843165608e-03       1.234333654011e+03 
       5.076378327093e-03       1.257804604072e+03 
       5.207178106520e-03       1.280935602106e+03 
       5.338224917928e-03       1.303728939706e+03 
       5.469502695439e-03       1.326182298353e+03 
       5.600996741143e-03       1.348297856565e+03 
       5.732693590021e-03       1.370077143108e+03 
       5.864580889854e-03       1.391483536725e+03 
       5.996647294339e-03       1.412594988953e+03 
       6.128882367821e-03       1.433371947780e+03 
       6.261276500283e-03       1.453809533514e+03 
       6.393820831378e-03       1.473921753699e+03 
       6.526507182444e-03       1.493706857024e+03 
       6.659327995599e-03       1.513166621317e+03 
       6.792276279080e-03       1.532301062619e+03 
       6.925345558136e-03       1.551125076737e+03 
       7.058529830838e-03       1.569615218903e+03 
       7.191823528273e-03       1.587795153330e+03 
       7.325221478627e-03       1.605662977217e+03 
       7.458718874737e-03       1.623205954228e+03 
       7.592311244746e-03       1.640450522478e+03 
       7.725994425516e-03       1.657388197464e+03 
       7.859764538526e-03       1.674026031851e+03 
       7.993617967985e-03       1.690353719682e+03 
       8.127551340930e-03       1.706399101357e+03 
       8.261561509114e-03       1.722136347660e+03 
       8.395645532508e-03       1.737576252842e+03 
       8.529800664240e-03       1.752728107910e+03 
       8.664024336849e-03       1.767592551942e+03 
       8.798314149710e-03       1.782172389749e+03 
       8.932667857527e-03       1.796470201186e+03 
       9.067083359797e-03       1.810490141454e+03 
       9.201558691138e-03       1.824233087542e+03 
       9.336092012413e-03       1.837701930492e+03 
       9.470681602580e-03       1.850903899371e+03 
       9.605325851189e-03       1.863830944168e+03 
       9.740023251481e-03       1.876479327986e+03 
       9.874772394026e-03       1.888884599082e+03 
       1.000957196086e-02       1.901020306212e+03 
       1.014442072009e-02       1.912902372404e+03 
       1.027931752085e-02       1.924532048763e+03 
       1.041426128875e-02       1.935909602875e+03 
       1.054925102157e-02       1.947038421667e+03 
       1.068428578530e-02       1.957942222660e+03 
       1.081936471051e-02       1.968557313186e+03 
       1.095448698894e-02       1.978953237105e+03 
       1.108965187039e-02       1.989109116536e+03 
       1.122485865976e-02       1.999030044453e+03 
       1.136010671441e-02       2.008719580798e+03 
       1.149539544159e-02       2.018168729523e+03 
       1.163072429616e-02       2.027391974679e+03 
       1.176609277841e-02       2.036390779207e+03 
       1.190150043206e-02       2.045172021309e+03 
       1.203694684237e-02       2.053721281116e+03 
       1.217243163447e-02       2.062063528806e+03 
       1.230795447166e-02       2.070176150428e+03 
       1.244351505399e-02       2.078084254339e+03 
       1.257911311684e-02       2.085770547549e+03 
       1.271474842963e-02       2.093268749399e+03 
       1.285042079462e-02       2.100544075157e+03 
       1.298613004581e-02       2.107604322724e+03 
       1.312187604790e-02       2.114460215889e+03 
       1.325765869532e-02       2.121115558878e+03 
       1.339347791138e-02       2.127571580467e+03 
       1.352933364741e-02       2.133863610764e+03 
       1.366522588202e-02       2.139902005382e+03 
       1.380115462040e-02       2.145772913202e+03 
       1.393711989368e-02       2.151453672466e+03 
       1.407312175833e-02       2.156944850732e+03 
       1.420916029560e-02       2.162250013845e+03 
       1.434523561105e-02       2.167370825949e+03 
       1.448134783408e-02       2.172309181130e+03 
       1.461749711751e-02       2.177072890521e+03 
       1.475368363719e-02       2.181643691129e+03 
       1.477104874446e-02       2.182214718075e+03 
       1.488990759171e-02       2.186046210879e+03 
       1.502616920206e-02       2.190277224232e+03 
       1.516246871134e-02       2.194326817898e+03 
       1.529880638457e-02       2.198210813713e+03 
       1.543518250845e-02       2.201961139207e+03 
       1.557159739119e-02       2.205510729571e+03 
       1.570805136235e-02       2.208903675077e+03 
       1.584454477272e-02       2.212125587904e+03 
       1.598107799423e-02       2.215189011740e+03 
       1.611765141987e-02       2.218089004520e+03 
       1.625426546363e-02       2.220834628158e+03 
       1.639092056047e-02       2.223422814128e+03 
       1.652761716634e-02       2.225874566911e+03 
       1.666435575817e-02       2.228159075959e+03 
       1.680113683391e-02       2.230294734797e+03 
       1.693796091260e-02       2.232283218909e+03 
       1.707482853444e-02       2.234126021628e+03 
       1.721174026088e-02       2.235832485121e+03 
       1.734869667475e-02       2.237386842191e+03 
       1.748569838038e-02       2.238799911086e+03 
       1.762274600376e-02       2.240069086485e+03 
       1.775984019269e-02       2.241207898487e+03 
       1.789698161702e-02       2.242210287879e+03 
       1.803417096878e-02       2.243077658064e+03 
       1.817140896249e-02       2.243814515699e+03 
       1.830869633531e-02       2.244418200592e+03 
       1.844603384737e-02       2.244893866448e+03 
       1.858342228200e-02       2.245242276236e+03 
       1.872086244604e-02       2.245464516378e+03 
       1.885835517015e-02       2.245562356258e+03 
       1.899590130911e-02       2.245537829692e+03 
       1.913350174221e-02       2.245391838749e+03 
       1.927115737354e-02       2.245150996115e+03 
       1.940886913245e-02       2.244767046888e+03 
       1.954663797386e-02       2.244268246239e+03 
       1.968446487872e-02       2.243653218730e+03 
       1.982235085443e-02       2.242925174820e+03 
       1.996029693529e-02       2.242094215205e+03 
       2.009830418294e-02       2.241139645703e+03 
       2.023637368685e-02       2.240089939495e+03 
       2.037450656485e-02       2.238925687974e+03 
       2.051270396360e-02       2.237656170463e+03 
       2.065096705917e-02       2.236282646575e+03 
       2.078929705756e-02       2.234812927828e+03 
       2.092769519532e-02       2.233237958693e+03 
       2.106616274010e-02       2.231563664427e+03 
       2.120470099128e-02       2.229790300804e+03 
       2.134331128065e-02       2.227932255423e+03 
       2.148199497298e-02       2.225966547717e+03 
       2.162075346680e-02       2.223906970894e+03 
       2.175958819504e-02       2.221755318718e+03 
       2.189850062575e-02       2.219512658461e+03 
       2.203749226291e-02       2.217181762580e+03 
       2.217656464712e-02       2.214761685435e+03 
       2.231571935646e-02       2.212253935845e+03 
       2.245495800730e-02       2.209671214557e+03 
       2.259428225512e-02       2.206992903487e+03 
       2.273369379541e-02       2.204233754649e+03 
       2.287319436456e-02       2.201391850815e+03 
       2.301278574082e-02       2.198470750016e+03 
       2.315246974520e-02       2.195471291035e+03 
       2.329224824252e-02       2.192391516300e+03 
       2.343212314239e-02       2.189251512472e+03 
       2.357209640027e-02       2.186021433739e+03 
       2.371217001858e-02       2.182720262898e+03 
       2.385234604776e-02       2.179348356740e+03 
       2.399262658750e-02       2.175904012528e+03 
       2.413301378785e-02       2.172388492849e+03 
       2.427350985049e-02       2.168803270935e+03 
       2.441411702999e-02       2.165150131966e+03 
       2.455483763510e-02       2.161434893647e+03 
       2.469567403011e-02       2.157651571440e+03 
       2.483662863619e-02       2.153804922640e+03 
       2.497770393291e-02       2.149901232236e+03 
       2.511890245960e-02       2.145930909098e+03 
       2.526022681697e-02       2.141897186907e+03 
       2.540167966862e-02       2.137808450441e+03 
       2.554326374270e-02       2.133657087738e+03 
       2.568498183353e-02       2.129448344926e+03 
       2.582683680338e-02       2.125183787646e+03 
       2.596883158422e-02       2.120870176551e+03 
       2.611096917956e-02       2.116493032992e+03 
       2.625325266638e-02       2.112074861966e+03 
       2.639568519705e-02       2.107598059607e+03 
       2.653827000138e-02       2.103068036703e+03 
       2.668101038871e-02       2.098490888971e+03 
       2.682390975006e-02       2.093864422911e+03 
       2.696697156042e-02       2.089191187067e+03 
       2.711019938096e-02       2.084479324594e+03 
       2.725359686154e-02       2.079714372273e+03 
       2.739716774309e-02       2.074904171788e+03 
       2.754091586019e-02       2.070052912547e+03 
       2.768484514375e-02       2.065151022275e+03 
       2.782895962371e-02       2.060213200499e+03 
       2.797326343187e-02       2.055242028362e+03 
       2.811776080484e-02       2.050222558560e+03 
       2.826245608707e-02       2.045166863892e+03 
       2.840735373399e-02       2.040071550775e+03 
       2.855245831526e-02       2.034937993135e+03 
       2.869777451817e-02       2.029768303837e+03 
       2.884330715110e-02       2.024567750413e+03 
       2.898906114716e-02       2.019330352096e+03 
       2.913504156796e-02       2.014055981098e+03 
       2.928125360751e-02       2.008749061862e+03 
       2.942770259622e-02       2.003410345604e+03 
       2.957439400515e-02       1.998040401825e+03 
       2.972133345034e-02       1.992640459516e+03 
       2.986852669733e-02       1.987210727573e+03 
       3.001597966585e-02       1.981751865209e+03 
       3.016369843473e-02       1.976264865133e+03 
       3.031168924693e-02       1.970755868879e+03 
       3.045995851483e-02       1.965215261720e+03 
       3.060851282570e-02       1.959647598392e+03 
       3.075735894741e-02       1.954056811708e+03 
       3.090650383433e-02       1.948439851443e+03 
       3.105595463354e-02       1.942798010076e+03 
       3.120571869122e-02       1.937132346236e+03 
       3.135580355934e-02       1.931447918685e+03 
       3.150621700264e-02       1.925738772199e+03 
       3.165696700587e-02       1.920007539549e+03 
       3.180806178140e-02       1.914259227499e+03 
       3.195950977704e-02       1.908488693944e+03 
       3.211131968435e-02       1.902698071942e+03 
       3.226350044716e-02       1.896889909920e+03 
       3.241606127061e-02       1.891063772239e+03 
       3.256901163042e-02       1.885224586120e+03 
       3.272236128278e-02       1.879363226153e+03 
       3.287612027448e-02       1.873485567792e+03 
       3.303029895367e-02       1.867594220446e+03 
       3.318490798099e-02       1.861685038048e+03 
       3.333995834130e-02       1.855762952009e+03 
       3.349546135590e-02       1.849825391381e+03 
       3.365142869538e-02       1.843873462736e+03 
       3.380787239304e-02       1.837909347151e+03 
       3.396480485897e-02       1.831928255039e+03 
       3.412223889484e-02       1.825939583292e+03 
       3.428018770933e-02       1.819936164899e+03 
       3.443866493448e-02       1.813922749398e+03 
       3.459768464266e-02       1.807898518286e+03 
       3.475726136460e-02       1.801861121681e+03 
       3.491741010817e-02       1.795813051611e+03 
       3.507814637824e-02       1.789755912166e+03 
       3.523948619750e-02       1.783692760488e+03 
       3.540144612849e-02       1.777616926768e+03 
       3.556404329661e-02       1.771531628238e+03 
       3.572729541459e-02       1.765437217677e+03 
       3.589122080811e-02       1.759336449399e+03 
       3.605583844294e-02       1.753226043881e+03 
       3.622116795354e-02       1.747107780609e+03 
       3.638722967324e-02       1.740980639323e+03 
       3.655404466621e-02       1.734849229621e+03 
       3.672163476121e-02       1.728708985717e+03 
       3.689002258730e-02       1.722560192347e+03 
       3.705923161166e-02       1.716407524345e+03 
       3.722928617967e-02       1.710245661999e+03 
       3.740021155739e-02       1.704078475737e+03 
       3.757203397659e-02       1.697903609064e+03 
       3.774478068263e-02       1.691722836365e+03 
       3.791847998524e-02       1.685538304486e+03 
       3.809316131254e-02       1.679346547968e+03 
       3.826885526854e-02       1.673147424266e+03 
       3.844559369430e-02       1.666941918737e+03 
       3.862340973312e-02       1.660731146662e+03 
       3.880233790007e-02       1.654513479045e+03 
       3.898241415619e-02       1.648288384722e+03 
       3.916367598768e-02       1.642059830962e+03 
       3.934616249064e-02       1.635824452132e+03 
       3.952991446168e-02       1.629582715323e+03 
       3.971497449496e-02       1.623333870551e+03 
       3.990138708620e-02       1.617077965789e+03 
       4.008919874426e-02       1.610814871832e+03 
       4.027845811102e-02       1.604546660618e+03 
       4.046921609010e-02       1.598268660939e+03 
       4.066152598557e-02       1.591985386857e+03 
       4.085544365114e-02       1.585692762773e+03 
       4.105102765121e-02       1.579393459462e+03 
       4.124833943464e-02       1.573084516374e+03 
       4.144744352250e-02       1.566767571050e+03 
       4.164840771132e-02       1.560440758268e+03 
       4.185130329316e-02       1.554105438413e+03 
       4.205620529432e-02       1.547757498730e+03 
       4.226319273463e-02       1.541401827406e+03 
       4.247234890930e-02       1.535034268108e+03 
       4.268376169584e-02       1.528652862687e+03 
       4.289752388881e-02       1.522262616399e+03 
       4.311373356513e-02       1.515857984975e+03 
       4.333249448381e-02       1.509438681897e+03 
       4.355391652348e-02       1.503005424502e+03 
       4.377811616253e-02       1.496556208109e+03 
       4.400521700652e-02       1.490091039616e+03 
       4.423535036865e-02       1.483610146401e+03 
       4.446865590973e-02       1.477109827020e+03 
       4.470528234497e-02       1.470589947582e+03 
       4.494538822602e-02       1.464049114567e+03 
       4.518914280807e-02       1.457487932425e+03 
       4.543672701291e-02       1.450902313678e+03 
       4.568833450110e-02       1.444293355586e+03 
       4.594417286796e-02       1.437657237484e+03 
       4.620446498067e-02       1.430992560639e+03 
       4.646945047678e-02       1.424298520700e+03 
       4.673938744729e-02       1.417572838002e+03 
       4.701455433211e-02       1.410812443392e+03 
       4.729525206002e-02       1.404016394027e+03 
       4.758180647121e-02       1.397181630944e+03 
       4.787457106745e-02       1.390304778481e+03 
       4.817393014323e-02       1.383383334027e+03 
       4.848030236149e-02       1.376415855116e+03 
       4.879414485003e-02       1.369396079191e+03 
       4.911595790967e-02       1.362323086045e+03 
       4.944629044415e-02       1.355190459451e+03 
       4.978574624467e-02       1.347994616037e+03 
       5.013499129052e-02       1.340731009344e+03 
       5.049476226265e-02       1.333393718958e+03 
       5.086587651149e-02       1.325977448970e+03 
       5.124924377581e-02       1.318475334418e+03 
       5.164588001934e-02       1.310879053264e+03 
       5.205692384029e-02       1.303181046215e+03 
       5.248365602114e-02       1.295372580146e+03 
       5.292752292838e-02       1.287442535599e+03 
       5.339016465360e-02       1.279378354780e+03 
       5.387344901880e-02       1.271167190298e+03 
       5.437951286336e-02       1.262792197714e+03 
       5.491081240460e-02       1.254236032690e+03 
       5.547018493395e-02       1.245477053051e+03 
       5.606092469552e-02       1.236489875571e+03 
       5.668687649896e-02       1.227244487213e+03 
       5.735255143288e-02       1.217704985929e+03 
       5.806326989949e-02       1.207825025129e+03 
       5.882533790373e-02       1.197551578891e+03 
       5.964626268152e-02       1.186816418451e+03 
       6.053501245619e-02       1.175534798965e+03 
       6.150232060300e-02       1.163596627651e+03 
       6.256102343742e-02       1.150860718370e+03 
       6.372639730102e-02       1.137144757943e+03 
       6.501641516289e-02       1.122208621933e+03 
