# dimensionless total lensed [l(l+1)/2pi] C_l's
# for l=2 to 2600, i.e. number of multipoles equal to 2599
#
# -> if you prefer output in CAMB/HealPix/LensPix units/order, set 'format' to 'camb' in input file
# -> if you don't want to see such a header, set 'headers' to 'no' in input file
# -> for CMB lensing (phi), these are C_l^phi-phi for the lensing potential.
#    Remember the conversion factors:
#    C_l^dd (deflection) = l(l+1) C_l^phi-phi
#    C_l^gg (shear/convergence) = 1/4 (l(l+1))^2 C_l^phi-phi
#
# 1:l     2:TT                     3:EE                     4:TE                     5:BB                     6:phiphi                 7:TPhi                   8:Ephi               
    2       1.842850768176e-10       3.962898955103e-15       3.720714890937e-13       2.611809865005e-19       6.644457683351e-09       5.573476072397e-10      -1.781898271151e-12 
    3       1.765939492429e-10       5.495905209123e-15       4.161375196882e-13       5.223725442077e-19       4.041677623465e-09       4.256491752259e-10      -1.421855387391e-12 
    4       1.680908740769e-10       5.212091802470e-15       3.963125432631e-13       8.706474201438e-19       2.803220458212e-09       3.446169495445e-10      -9.933335144025e-13 
    5       1.612592942826e-10       3.839201362736e-15       3.479284288359e-13       1.306027934471e-18       2.093152959932e-09       2.859273953694e-10      -6.053815946883e-13 
    6       1.549173533138e-10       2.338070318491e-15       2.913315208360e-13       1.828548618948e-18       1.638128720479e-09       2.386719324741e-10      -2.949766049118e-13 
    7       1.502458681096e-10       1.282164295354e-15       2.386349558322e-13       2.438260019273e-18       1.325361709400e-09       2.015719376427e-10      -7.379315667423e-14 
    8       1.469642235423e-10       7.523647307786e-16       1.949283950872e-13       3.135232679603e-18       1.098754044296e-09       1.736248380064e-10       6.143519138263e-14 
    9       1.451482263981e-10       5.576155380749e-16       1.613053405967e-13       3.919561042993e-18       9.278049813319e-10       1.519787374934e-10       1.239759577208e-13 
   10       1.443264177036e-10       4.842662490999e-16       1.373875468058e-13       4.791366994811e-18       7.954322892685e-10       1.351427514650e-10       1.329427823498e-13 
   11       1.426633107100e-10       4.211817955578e-16       1.227990736363e-13       5.750802783540e-18       6.753207318451e-10       1.228019413759e-10       1.099561792641e-13 
   12       1.416188751170e-10       3.551832227580e-16       1.163080172056e-13       6.798053074666e-18       5.927413790704e-10       1.130251889084e-10       7.088496216630e-14 
   13       1.419303390242e-10       3.101294038761e-16       1.157989016607e-13       7.933335927738e-18       5.245328685604e-10       1.040276417494e-10       3.146510353156e-14 
   14       1.417671055817e-10       2.988790449892e-16       1.194362223425e-13       9.156902532735e-18       4.677958067341e-10       9.548273468913e-11       2.373384362825e-16 
   15       1.415542317544e-10       3.137265912170e-16       1.257577144913e-13       1.046903559765e-17       4.196864060830e-10       8.677725915818e-11      -1.937670553258e-14 
   16       1.417054476931e-10       3.411521317289e-16       1.337759724467e-13       1.187004634222e-17       3.789483199377e-10       7.942282571507e-11      -2.770159984777e-14 
   17       1.417919150116e-10       3.752757814347e-16       1.428832310831e-13       1.336027011992e-17       3.436216897139e-10       7.286164771036e-11      -2.685382051698e-14 
   18       1.420185701900e-10       4.194629245168e-16       1.522772402783e-13       1.494006151615e-17       3.129712357105e-10       6.680875794751e-11      -1.979588815617e-14 
   19       1.424296496169e-10       4.784100021758e-16       1.616193165647e-13       1.660978378235e-17       2.865708907661e-10       6.125330644295e-11      -9.430070002174e-15 
   20       1.428925662058e-10       5.561169881591e-16       1.707725084075e-13       1.836980927828e-17       2.631970187498e-10       5.609338904787e-11       7.925449690472e-16 
   21       1.435991655777e-10       6.521059048962e-16       1.800305357111e-13       2.022050078697e-17       2.425310161209e-10       5.156247899689e-11       8.734846720552e-15 
   22       1.447952329053e-10       7.641448522222e-16       1.898142712382e-13       2.216221289677e-17       2.242009446152e-10       4.789580395285e-11       1.281761912004e-14 
   23       1.464934830070e-10       8.927081035100e-16       2.001419504877e-13       2.419527388883e-17       2.079206756276e-10       4.487524286016e-11       1.305263268033e-14 
   24       1.485317441196e-10       1.038814538274e-15       2.107716841045e-13       2.631998702371e-17       1.932348613106e-10       4.211590419739e-11       1.029016015291e-14 
   25       1.505471475661e-10       1.202265834295e-15       2.210275109264e-13       2.853661423271e-17       1.799894898230e-10       3.966079424310e-11       5.852113014521e-15 
   26       1.521484400494e-10       1.382563965745e-15       2.301242392229e-13       3.084537721625e-17       1.679982301986e-10       3.759907158461e-11       1.348231814993e-15 
   27       1.535151189645e-10       1.580893167896e-15       2.379685388644e-13       3.324644606683e-17       1.571487504329e-10       3.561975978662e-11      -2.281567608245e-15 
   28       1.549841978232e-10       1.798912904445e-15       2.447255627971e-13       3.573994040934e-17       1.472758216414e-10       3.333978558426e-11      -4.369303875039e-15 
   29       1.566255948269e-10       2.037630537880e-15       2.505940780458e-13       3.832592922487e-17       1.383211726960e-10       3.096012946332e-11      -4.955001206457e-15 
   30       1.584055681486e-10       2.297807344112e-15       2.558447773830e-13       4.100442395402e-17       1.301674153056e-10       2.892562323040e-11      -4.397098289287e-15 
   31       1.602658521513e-10       2.580180385475e-15       2.607425498568e-13       4.377538174110e-17       1.226285511398e-10       2.762577527934e-11      -3.177934343693e-15 
   32       1.621678567225e-10       2.885659146281e-15       2.652094133381e-13       4.663873248551e-17       1.156750047962e-10       2.683118119978e-11      -1.772643449460e-15 
   33       1.640600289101e-10       3.215197083341e-15       2.690319879861e-13       4.959435478558e-17       1.092791749902e-10       2.603366401460e-11      -7.495463541999e-16 
   34       1.658880513154e-10       3.569736956401e-15       2.719758756289e-13       5.264208068501e-17       1.033729653540e-10       2.475559551927e-11      -6.306929715528e-16 
   35       1.676790661993e-10       3.950203872390e-15       2.738954497930e-13       5.578175042339e-17       9.792488768171e-11       2.315716754600e-11      -1.255662291451e-15 
   36       1.694855457189e-10       4.357506442642e-15       2.746592459824e-13       5.901317209358e-17       9.288180969439e-11       2.164480493153e-11      -2.188833601515e-15 
   37       1.713536660199e-10       4.792604773339e-15       2.741435476376e-13       6.233613320122e-17       8.816931653948e-11       2.060228085652e-11      -2.981591189104e-15 
   38       1.732915750679e-10       5.256744474724e-15       2.723134049699e-13       6.575049801775e-17       8.377706245542e-11       1.999535679755e-11      -3.525584703440e-15 
   39       1.752894356533e-10       5.751302935970e-15       2.691687239964e-13       6.925614101540e-17       7.969684782517e-11       1.963625123744e-11      -3.811868502347e-15 
   40       1.773266650467e-10       6.277731481875e-15       2.647237220171e-13       7.285292083712e-17       7.589711538663e-11       1.928494103173e-11      -3.836959645234e-15 
   41       1.793803007238e-10       6.837216903390e-15       2.589969656666e-13       7.654071305854e-17       7.233468394274e-11       1.871446337597e-11      -3.623910482752e-15 
   42       1.814557311046e-10       7.429524892588e-15       2.519754335217e-13       8.031952119235e-17       6.899952763480e-11       1.794089098053e-11      -3.292541143025e-15 
   43       1.835643175325e-10       8.053786156457e-15       2.436402609242e-13       8.418940189562e-17       6.588108404615e-11       1.706226838938e-11      -3.012935178925e-15 
   44       1.857145787114e-10       8.708786426100e-15       2.339767329304e-13       8.815043762441e-17       6.295460159773e-11       1.619740843638e-11      -2.988746464573e-15 
   45       1.879119999514e-10       9.393510855242e-15       2.229652614202e-13       9.220275114799e-17       6.018994109696e-11       1.545816933805e-11      -3.391661606849e-15 
   46       1.901591916794e-10       1.010901802309e-14       2.105507595934e-13       9.634654881291e-17       5.758376700110e-11       1.485358097153e-11      -4.136917675298e-15 
   47       1.924552017212e-10       1.085709245527e-14       1.966643571676e-13       1.005820941494e-16       5.513506803105e-11       1.435909291733e-11      -5.043925032205e-15 
   48       1.947950493479e-10       1.163974137263e-14       1.812313990686e-13       1.049096997326e-16       5.283552900666e-11       1.394255036872e-11      -5.895968765172e-15 
   49       1.971693948456e-10       1.245920735702e-14       1.641710618116e-13       1.093297301988e-16       5.066897842852e-11       1.356372595956e-11      -6.438235932326e-15 
   50       1.995683083040e-10       1.331743735953e-14       1.454152573033e-13       1.138425790385e-16       4.861640423214e-11       1.318345789116e-11      -6.451838003621e-15 
   51       2.019945485972e-10       1.421429042267e-14       1.249722834616e-13       1.184485845487e-16       4.667388770225e-11       1.279507467256e-11      -6.004142157097e-15 
   52       2.044533176623e-10       1.514886535832e-14       1.028797877287e-13       1.231480962812e-16       4.483858262803e-11       1.240069100656e-11      -5.262979555638e-15 
   53       2.069483420447e-10       1.611998927386e-14       7.918750128571e-14       1.279415010129e-16       4.310328909647e-11       1.200233128058e-11      -4.428154444070e-15 
   54       2.094817353717e-10       1.712620465417e-14       5.395776307742e-14       1.328292245284e-16       4.145616310574e-11       1.160191345570e-11      -3.733047638890e-15 
   55       2.120543232007e-10       1.816620150351e-14       2.724047075449e-14       1.378116684542e-16       3.988434597850e-11       1.120163189725e-11      -3.389965627952e-15 
   56       2.146670271243e-10       1.924026907938e-14      -1.010553991299e-15       1.428889983010e-16       3.838657368023e-11       1.080525414436e-11      -3.406615976601e-15 
   57       2.173195836182e-10       2.034918217349e-14      -3.087378953836e-14       1.480613058890e-16       3.696319129137e-11       1.041711806613e-11      -3.726849110698e-15 
   58       2.200099948812e-10       2.149379197478e-14      -6.243672362517e-14       1.533286689512e-16       3.561237298086e-11       1.004176058895e-11      -4.282342825019e-15 
   59       2.227344093234e-10       2.267503049134e-14      -9.579632567960e-14       1.586911503859e-16       3.432998433899e-11       9.683917128696e-12      -4.992014043505e-15 
   60       2.254870020542e-10       2.389391497234e-14      -1.310595191482e-13       1.641487975084e-16       3.310944471036e-11       9.348521022895e-12      -5.761430579506e-15 
   61       2.282614366814e-10       2.515126207502e-14      -1.683156023183e-13       1.697015981016e-16       3.194364868274e-11       9.039098203707e-12      -6.500837930900e-15 
   62       2.310559045028e-10       2.644674538918e-14      -2.075452083536e-13       1.753493387298e-16       3.083154599434e-11       8.752531432070e-12      -7.185298777044e-15 
   63       2.338690094869e-10       2.777963324797e-14      -2.486916555193e-13       1.810917131501e-16       2.977280098616e-11       8.483114483677e-12      -7.807070029023e-15 
   64       2.366982188076e-10       2.914905562264e-14      -2.916867860250e-13       1.869283606310e-16       2.876579287426e-11       8.224002738328e-12      -8.358181321989e-15 
   65       2.395397935058e-10       3.055399933488e-14      -3.364505483010e-13       1.928588638340e-16       2.780754341815e-11       7.967161694309e-12      -8.830437416383e-15 
   66       2.423887191520e-10       3.199330326923e-14      -3.828905792749e-13       1.988827466949e-16       2.689364458912e-11       7.703315482776e-12      -9.215420599167e-15 
   67       2.452386365075e-10       3.346565358538e-14      -4.309017866471e-13       2.049994723050e-16       2.601818623868e-11       7.421895382128e-12      -9.504493085049e-15 
   68       2.480849669960e-10       3.496976454950e-14      -4.803895291064e-13       2.112085204780e-16       2.517533306367e-11       7.114679785660e-12      -9.691705639635e-15 
   69       2.509351795125e-10       3.650497427833e-14      -5.313455448785e-13       2.175096434376e-16       2.436458823471e-11       6.787685652974e-12      -9.783202463343e-15 
   70       2.538004889364e-10       3.807076166240e-14      -5.837867285719e-13       2.239026583708e-16       2.358647127821e-11       6.451605159492e-12      -9.789735054050e-15 
   71       2.566928575375e-10       3.966657138824e-14      -6.377330769806e-13       2.303873722474e-16       2.284093353786e-11       6.118369591914e-12      -9.723999952154e-15 
   72       2.596250073462e-10       4.129181389799e-14      -6.932078748883e-13       2.369635817395e-16       2.212732802452e-11       5.801192273170e-12      -9.600715469729e-15 
   73       2.626104325245e-10       4.294586534907e-14      -7.502378808725e-13       2.436310731402e-16       2.144437926611e-11       5.514611487370e-12      -9.436698419681e-15 
   74       2.656634117363e-10       4.462806757383e-14      -8.088535131083e-13       2.503896222838e-16       2.079015315749e-11       5.274533404753e-12      -9.250940844896e-15 
   75       2.687990205181e-10       4.633772803923e-14      -8.690890351728e-13       2.572389944644e-16       2.016202681033e-11       5.098275006633e-12      -9.064686747402e-15 
   76       2.720287412698e-10       4.807406764930e-14      -9.309684553313e-13       2.641790557663e-16       1.955735697360e-11       4.999284812157e-12      -8.896924155744e-15 
   77       2.753463416684e-10       4.983605325295e-14      -9.944598451003e-13       2.712101306699e-16       1.897569266280e-11       4.970098745872e-12      -8.749742676875e-15 
   78       2.787394316261e-10       5.162253437795e-14      -1.059512989321e-12       2.783327098131e-16       1.841691311223e-11       4.996339736220e-12      -8.620432819216e-15 
   79       2.821935605751e-10       5.343229158661e-14      -1.126072828248e-12       2.855473465345e-16       1.788054942969e-11       5.061699043802e-12      -8.505816774002e-15 
   80       2.856921395641e-10       5.526403536588e-14      -1.194079350401e-12       2.928546590768e-16       1.736576877112e-11       5.147870050343e-12      -8.402231132230e-15 
   81       2.892163633548e-10       5.711640501748e-14      -1.263467485407e-12       3.002553327912e-16       1.687135851521e-11       5.234482047658e-12      -8.305509601614e-15 
   82       2.927451325176e-10       5.898796754805e-14      -1.334166996853e-12       3.077501223408e-16       1.639571043809e-11       5.299034026615e-12      -8.210965723531e-15 
   83       2.962549755282e-10       6.087721655926e-14      -1.406102375127e-12       3.153398539049e-16       1.593680488790e-11       5.316828466099e-12      -8.113375589975e-15 
   84       2.997262307742e-10       6.278262429607e-14      -1.479201032897e-12       3.230253443840e-16       1.549270925402e-11       5.267019253209e-12      -8.008329046093e-15 
   85       3.031629407476e-10       6.470281013648e-14      -1.553419687266e-12       3.308071387994e-16       1.506320298615e-11       5.152052462341e-12      -7.896578527826e-15 
   86       3.065761283894e-10       6.663639812882e-14      -1.628722175098e-12       3.386857331983e-16       1.464839420648e-11       4.981342035529e-12      -7.780382833845e-15 
   87       3.099778573146e-10       6.858196610379e-14      -1.705071571158e-12       3.466616545789e-16       1.424822229143e-11       4.765478209869e-12      -7.662208372664e-15 
   88       3.133812591168e-10       7.053804545804e-14      -1.782430220508e-12       3.547354616995e-16       1.386245068992e-11       4.516264064991e-12      -7.544734879353e-15 
   89       3.168005606729e-10       7.250312093771e-14      -1.860759770889e-12       3.629077458872e-16       1.349065974157e-11       4.246752070532e-12      -7.430861132241e-15 
   90       3.202511114480e-10       7.447563042198e-14      -1.940021205111e-12       3.711791318472e-16       1.313223949498e-11       3.971280633607e-12      -7.323710669627e-15 
   91       3.237494108004e-10       7.645396470657e-14      -2.020174873437e-12       3.795502784714e-16       1.278638252598e-11       3.705510646281e-12      -7.226637506490e-15 
   92       3.273131352859e-10       7.843646728735e-14      -2.101180525975e-12       3.880218796476e-16       1.245207675583e-11       3.466462033044e-12      -7.143231851194e-15 
   93       3.309572768090e-10       8.042145935348e-14      -2.182994976313e-12       3.965945403586e-16       1.212835223163e-11       3.268842964581e-12      -7.076413159617e-15 
   94       3.346818333627e-10       8.240731953693e-14      -2.265564620122e-12       4.052683819053e-16       1.181507952331e-11       3.113326583286e-12      -7.025540846882e-15 
   95       3.384823088448e-10       8.439241581294e-14      -2.348831845999e-12       4.140433785284e-16       1.151227868598e-11       2.996570464869e-12      -6.988877574107e-15 
   96       3.423534115242e-10       8.637508148692e-14      -2.432737303829e-12       4.229194759374e-16       1.121987235092e-11       2.914752698850e-12      -6.964456471812e-15 
   97       3.462890279606e-10       8.835361532405e-14      -2.517219904659e-12       4.318965904075e-16       1.093768202998e-11       2.863557546071e-12      -6.950074328668e-15 
   98       3.502821969230e-10       9.032628167886e-14      -2.602216820566e-12       4.409746078768e-16       1.066542441985e-11       2.838161096209e-12      -6.943284780229e-15 
   99       3.543250833090e-10       9.229131062486e-14      -2.687663484535e-12       4.501533830432e-16       1.040270770644e-11       2.833216925285e-12      -6.941391497672e-15 
  100       3.584089520637e-10       9.424689808409e-14      -2.773493590326e-12       4.594327384617e-16       1.014902786921e-11       2.842841753173e-12      -6.941441376540e-15 
  101       3.625241420988e-10       9.619120595675e-14      -2.859639092349e-12       4.688124636414e-16       9.903764985518e-12       2.860601101115e-12      -6.940217725475e-15 
  102       3.666600402115e-10       9.812236225077e-14      -2.946030205532e-12       4.782923141426e-16       9.666179534952e-12       2.879494949228e-12      -6.934233454963e-15 
  103       3.708050550035e-10       1.000384612114e-13      -3.032595405198e-12       4.878720106741e-16       9.435408703669e-12       2.891943394019e-12      -6.919724266066e-15 
  104       3.749491398631e-10       1.019376142721e-13      -3.119263308497e-12       4.975514246131e-16       9.210665934629e-12       2.891409964971e-12      -6.893497497338e-15 
  105       3.790918062372e-10       1.038181104670e-13      -3.205968608453e-12       5.073311650538e-16       8.991878238192e-12       2.877552206852e-12      -6.855623927781e-15 
  106       3.832351492522e-10       1.056782780301e-13      -3.292646945015e-12       5.172120697465e-16       8.779128483908e-12       2.851743366511e-12      -6.807098591866e-15 
  107       3.873813972220e-10       1.075164361893e-13      -3.379233115372e-12       5.271950268878e-16       8.572458397912e-12       2.815500474634e-12      -6.749020152725e-15 
