# Matter power spectrum P(k) at redshift z=3
# for k=9.98378e-06 to 1.4771 h/Mpc,
# number of wavenumbers equal to 608
#    1:k (h/Mpc)              2:P (Mpc/h)^3        
       9.983778585635e-06       6.403027412606e+00 
       2.266726664073e-05       1.415275049196e+01 
       3.539321212796e-05       2.177841168101e+01 
       4.819480895934e-05       2.935698367924e+01 
       6.110577674038e-05       3.693249437758e+01 
       7.416065232368e-05       4.453819335229e+01 
       8.739509032601e-05       5.220269469914e+01 
       1.008461764970e-04       5.995248266793e+01 
       1.145527578569e-04       6.781319439619e+01 
       1.285557935551e-04       7.581039733493e+01 
       1.428987304094e-04       8.397013034776e+01 
       1.576279070505e-04       9.231932614986e+01 
       1.727929904532e-04       1.008861726921e+02 
       1.884474483480e-04       1.097004441567e+02 
       2.046490604759e-04       1.187938188200e+02 
       2.214604707780e-04       1.282001935983e+02 
       2.389497812617e-04       1.379560003915e+02 
       2.571911862698e-04       1.481005257982e+02 
       2.762656429847e-04       1.586762325939e+02 
       2.962615699396e-04       1.697290779988e+02 
       3.172755597836e-04       1.813088198778e+02 
       3.394130851905e-04       1.934692973212e+02 
       3.627891672877e-04       2.062686663523e+02 
       3.875289640456e-04       2.197695646773e+02 
       4.137682216192e-04       2.340391714721e+02 
       4.416535149842e-04       2.491491194777e+02 
       4.713421862152e-04       2.651752078175e+02 
       5.030018712382e-04       2.821968561704e+02 
       5.368094918380e-04       3.002962361427e+02 
       5.729495836132e-04       3.195570165696e+02 
       6.116118383451e-04       3.400626694243e+02 
       6.529877677232e-04       3.618943056493e+02 
       6.972664509586e-04       3.851280485689e+02 
       7.446294152575e-04       4.098320075442e+02 
       7.952448134293e-04       4.360629833572e+02 
       8.492611962954e-04       4.638631112427e+02 
       9.068013079633e-04       4.932567135445e+02 
       9.679564297896e-04       5.242476736437e+02 
       1.032781832094e-03       5.568176385628e+02 
       1.101293837538e-03       5.909252988786e+02 
       1.173468851527e-03       6.265068837325e+02 
       1.249244493137e-03       6.634778637622e+02 
       1.328522707573e-03       7.017357056962e+02 
       1.411174511051e-03       7.411634020658e+02 
       1.477104874446e-03       7.722802308799e+02 
       1.497045857882e-03       7.816334328255e+02 
       1.585964053133e-03       8.230118113280e+02 
       1.677744162151e-03       8.651619163638e+02 
       1.772194967814e-03       9.079478939800e+02 
       1.869124164351e-03       9.512375033690e+02 
       1.968342619945e-03       9.949032865724e+02 
       2.069667664864e-03       1.038826290580e+03 
       2.172925454746e-03       1.082897314788e+03 
       2.277952517281e-03       1.127015356643e+03 
       2.384596619024e-03       1.171088906443e+03 
       2.492717094784e-03       1.215035849754e+03 
       2.602184772956e-03       1.258783114418e+03 
       2.712881612819e-03       1.302266135164e+03 
       2.824700149453e-03       1.345428205082e+03 
       2.937542821586e-03       1.388219775803e+03 
       3.051321239398e-03       1.430597756596e+03 
       3.165955433788e-03       1.472524847966e+03 
       3.281373116062e-03       1.513968929849e+03 
       3.397508967288e-03       1.554902510749e+03 
       3.514303969180e-03       1.595302234321e+03 
       3.631704783047e-03       1.635148434924e+03 
       3.749663179492e-03       1.674424733106e+03 
       3.868135518982e-03       1.713117664522e+03 
       3.987082281649e-03       1.751216339290e+03 
       4.106467643678e-03       1.788712131713e+03 
       4.226259096974e-03       1.825598401466e+03 
       4.346427108603e-03       1.861870246749e+03 
       4.466944816399e-03       1.897524288116e+03 
       4.587787757240e-03       1.932558479766e+03 
       4.708933624679e-03       1.966971943890e+03 
       4.830362052851e-03       2.000764823610e+03 
       4.952054423803e-03       2.033938151203e+03 
       5.073993695700e-03       2.066493645012e+03 
       5.196164249557e-03       2.098433510405e+03 
       5.318551752443e-03       2.129761142504e+03 
       5.441143035287e-03       2.160480081086e+03 
       5.563925983640e-03       2.190594298245e+03 
       5.686889439925e-03       2.220108146191e+03 
       5.810023115888e-03       2.249026310046e+03 
       5.933317514092e-03       2.277353771429e+03 
       6.056763857451e-03       2.305095769906e+03 
       6.180354025903e-03       2.332257762023e+03 
       6.304080499436e-03       2.358845391128e+03 
       6.427936306766e-03       2.384864453709e+03 
       6.551914979054e-03       2.410320868770e+03 
       6.676010508118e-03       2.435220654238e+03 
       6.800217308653e-03       2.459569906435e+03 
       6.924530184040e-03       2.483374784726e+03 
       7.048944295364e-03       2.506641500966e+03 
       7.173455133305e-03       2.529376308153e+03 
       7.298058492610e-03       2.551585491764e+03 
       7.422750448878e-03       2.573275360133e+03 
       7.547527337428e-03       2.594452231964e+03 
       7.672385734040e-03       2.615122425645e+03 
       7.797322437382e-03       2.635292246068e+03 
       7.922334452964e-03       2.654967971424e+03 
       8.047418978466e-03       2.674155842195e+03 
       8.172573390305e-03       2.692862062594e+03 
       8.297795231336e-03       2.711093777298e+03 
       8.423082199570e-03       2.728855935393e+03 
       8.548432137812e-03       2.746154511056e+03 
       8.673843024154e-03       2.762995408223e+03 
       8.799312963217e-03       2.779384445264e+03 
       8.924840178099e-03       2.795327356361e+03 
       9.050423002956e-03       2.810829794646e+03 
       9.176059876161e-03       2.825897336091e+03 
       9.301749333989e-03       2.840535487416e+03 
       9.427490004790e-03       2.854749691936e+03 
       9.553280603602e-03       2.868545337554e+03 
       9.679119927168e-03       2.881927762813e+03 
       9.805006849328e-03       2.894902261905e+03 
       9.930940316746e-03       2.907474088630e+03 
       1.005691934496e-02       2.919648456544e+03 
       1.018294301471e-02       2.931430539358e+03 
       1.030901046853e-02       2.942825466607e+03 
       1.043512090761e-02       2.953838320527e+03 
       1.056127358885e-02       2.964474129928e+03 
       1.068746782212e-02       2.974737865390e+03 
       1.081370296779e-02       2.984634434342e+03 
       1.093997843428e-02       2.994168677846e+03 
       1.106629367596e-02       3.003345369333e+03 
       1.119264819108e-02       3.012169215261e+03 
       1.131904151988e-02       3.020644858015e+03 
       1.144547324281e-02       3.028776880218e+03 
       1.157194297891e-02       3.036569810175e+03 
       1.169845038431e-02       3.044028127602e+03 
       1.182499515075e-02       3.051156268899e+03 
       1.195157700431e-02       3.057958632215e+03 
       1.207819570415e-02       3.064439582181e+03 
       1.220485104141e-02       3.070603452001e+03 
       1.233154283809e-02       3.076454545097e+03 
       1.245827094612e-02       3.081997126130e+03 
       1.258503524641e-02       3.087235379680e+03 
       1.271183564800e-02       3.092173341641e+03 
       1.283867208730e-02       3.096814884390e+03 
       1.296554452735e-02       3.101163827818e+03 
       1.309245295713e-02       3.105224052591e+03 
       1.321939739094e-02       3.108999492772e+03 
       1.334637786787e-02       3.112494074879e+03 
       1.347339445122e-02       3.115711682520e+03 
       1.360044722803e-02       3.118656155607e+03 
       1.372753630868e-02       3.121331212069e+03 
       1.385466182641e-02       3.123740706502e+03 
       1.398182393703e-02       3.125888265771e+03 
       1.410902281855e-02       3.127777555281e+03 
       1.423625867088e-02       3.129412197997e+03 
       1.436353171560e-02       3.130795778493e+03 
       1.449084219568e-02       3.131931844700e+03 
       1.461819037531e-02       3.132823909056e+03 
       1.474557653971e-02       3.133475449473e+03 
       1.477104874446e-02       3.133577161761e+03 
       1.487300099495e-02       3.133889910296e+03 
       1.500046406791e-02       3.134070703191e+03 
       1.512796610608e-02       3.134021207909e+03 
       1.525550747754e-02       3.133744773009e+03 
       1.538308857090e-02       3.133244716473e+03 
       1.551070979526e-02       3.132524326106e+03 
       1.563837158020e-02       3.131586859851e+03 
       1.576607437582e-02       3.130435545929e+03 
       1.589381865272e-02       3.129073583017e+03 
       1.602160490207e-02       3.127504139956e+03 
       1.614943363573e-02       3.125730356015e+03 
       1.627730538627e-02       3.123755340666e+03 
       1.640522070710e-02       3.121582173688e+03 
       1.653318017262e-02       3.119213905344e+03 
       1.666118437833e-02       3.116653556659e+03 
       1.678923394104e-02       3.113904119939e+03 
       1.691732949897e-02       3.110968559473e+03 
       1.704547171201e-02       3.107849812320e+03 
       1.717366126194e-02       3.104550789292e+03 
       1.730189885259e-02       3.101074376327e+03 
       1.743018521015e-02       3.097423435104e+03 
       1.755852108341e-02       3.093600804864e+03 
       1.768690724405e-02       3.089609302947e+03 
       1.781534448690e-02       3.085451725909e+03 
       1.794383363029e-02       3.081130850208e+03 
       1.807237551638e-02       3.076649432478e+03 
       1.820097101148e-02       3.072010209842e+03 
       1.832962100641e-02       3.067215899606e+03 
       1.845832641691e-02       3.062269198874e+03 
       1.858708818401e-02       3.057172783936e+03 
       1.871590727446e-02       3.051929309258e+03 
       1.884478468114e-02       3.046541406816e+03 
       1.897372142351e-02       3.041011684810e+03 
       1.910271854811e-02       3.035342727014e+03 
       1.923177712899e-02       3.029537092037e+03 
       1.936089826825e-02       3.023597312576e+03 
       1.949008309654e-02       3.017525895387e+03 
       1.961933277362e-02       3.011325321151e+03 
       1.974864848890e-02       3.004998044772e+03 
       1.987803146201e-02       2.998546496072e+03 
       2.000748294341e-02       2.991973080389e+03 
       2.013700421504e-02       2.985280179614e+03 
       2.026659659088e-02       2.978470153279e+03 
       2.039626141769e-02       2.971545339454e+03 
       2.052600007564e-02       2.964508055777e+03 
       2.065581397905e-02       2.957360600485e+03 
       2.078570457709e-02       2.950105252784e+03 
       2.091567335453e-02       2.942744273456e+03 
       2.104572183254e-02       2.935279905152e+03 
       2.117585156948e-02       2.927714372241e+03 
       2.130606416170e-02       2.920049880536e+03 
       2.143636124443e-02       2.912288617193e+03 
       2.156674449263e-02       2.904432749845e+03 
       2.169721562189e-02       2.896484426155e+03 
       2.182777638940e-02       2.888445773292e+03 
       2.195842859490e-02       2.880318897290e+03 
       2.208917408162e-02       2.872105882517e+03 
       2.222001473739e-02       2.863808791429e+03 
       2.235095249565e-02       2.855429664406e+03 
       2.248198933654e-02       2.846970519436e+03 
       2.261312728801e-02       2.838433352307e+03 
       2.274436842704e-02       2.829820136747e+03 
       2.287571488077e-02       2.821132824729e+03 
       2.300716882775e-02       2.812373346638e+03 
       2.313873249925e-02       2.803543611747e+03 
       2.327040818051e-02       2.794645508352e+03 
       2.340219821215e-02       2.785680904213e+03 
       2.353410499155e-02       2.776651646490e+03 
       2.366613097427e-02       2.767559562186e+03 
       2.379827867556e-02       2.758406458051e+03 
       2.393055067190e-02       2.749194120644e+03 
       2.406294960257e-02       2.739924316189e+03 
       2.419547817129e-02       2.730598790404e+03 
       2.432813914794e-02       2.721219268668e+03 
       2.446093537024e-02       2.711787455629e+03 
       2.459386974564e-02       2.702305035340e+03 
       2.472694525309e-02       2.692773670924e+03 
       2.486016494505e-02       2.683195004975e+03 
       2.499353194942e-02       2.673570659331e+03 
       2.512704947161e-02       2.663902235441e+03 
       2.526072079668e-02       2.654191314391e+03 
       2.539454929152e-02       2.644439457330e+03 
       2.552853840713e-02       2.634648205405e+03 
       2.566269168095e-02       2.624819080616e+03 
       2.579701273933e-02       2.614953585179e+03 
       2.593150530000e-02       2.605053202496e+03 
       2.606617317469e-02       2.595119396893e+03 
       2.620102027185e-02       2.585153613526e+03 
       2.633605059938e-02       2.575157278462e+03 
       2.647126826757e-02       2.565131798305e+03 
       2.660667749206e-02       2.555078560080e+03 
       2.674228259698e-02       2.544998930682e+03 
       2.687808801810e-02       2.534894256372e+03 
       2.701409830619e-02       2.524765862586e+03 
       2.715031813050e-02       2.514615053418e+03 
       2.728675228229e-02       2.504443110961e+03 
       2.742340567857e-02       2.494251295448e+03 
       2.756028336594e-02       2.484040844994e+03 
       2.769739052459e-02       2.473812975393e+03 
       2.783473247247e-02       2.463568880441e+03 
       2.797231466956e-02       2.453309732307e+03 
       2.811014272238e-02       2.443036681863e+03 
       2.824822238863e-02       2.432750859300e+03 
       2.838655958203e-02       2.422453374445e+03 
       2.852516037733e-02       2.412145317926e+03 
       2.866403101553e-02       2.401827761323e+03 
       2.880317790936e-02       2.391501757488e+03 
       2.894260764889e-02       2.381168341473e+03 
       2.908232700743e-02       2.370828530343e+03 
       2.922234294768e-02       2.360483323078e+03 
       2.936266262809e-02       2.350133700708e+03 
       2.950329340953e-02       2.339780625712e+03 
       2.964424286221e-02       2.329425041971e+03 
       2.978551877293e-02       2.319067873675e+03 
       2.992712915260e-02       2.308710025042e+03 
       3.006908224411e-02       2.298352379922e+03 
       3.021138653056e-02       2.287995800929e+03 
       3.035405074382e-02       2.277641129447e+03 
       3.049708387347e-02       2.267289185202e+03 
       3.064049517621e-02       2.256940766197e+03 
       3.078429418557e-02       2.246596649152e+03 
       3.092849072220e-02       2.236257589439e+03 
       3.107309490454e-02       2.225924321957e+03 
       3.121811716003e-02       2.215597561365e+03 
       3.136356823684e-02       2.205278002721e+03 
       3.150945921615e-02       2.194966322219e+03 
       3.165580152501e-02       2.184663177657e+03 
       3.180260694987e-02       2.174369208926e+03 
       3.194988765069e-02       2.164085038103e+03 
       3.209765617583e-02       2.153811269638e+03 
       3.224592547762e-02       2.143548490523e+03 
       3.239470892874e-02       2.133297269816e+03 
       3.254402033944e-02       2.123058158436e+03 
       3.269387397563e-02       2.112831688323e+03 
       3.284428457792e-02       2.102618372597e+03 
       3.299526738161e-02       2.092418704116e+03 
       3.314683813785e-02       2.082233155615e+03 
       3.329901313578e-02       2.072062178983e+03 
       3.345180922602e-02       2.061906204510e+03 
       3.360524384532e-02       2.051765641234e+03 
       3.375933504266e-02       2.041640876186e+03 
       3.391410150675e-02       2.031532274931e+03 
       3.406956259513e-02       2.021440181140e+03 
       3.422573836489e-02       2.011364917201e+03 
       3.438264960519e-02       2.001306784227e+03 
       3.454031787167e-02       1.991266062572e+03 
       3.469876552292e-02       1.981243011891e+03 
       3.485801575908e-02       1.971237871577e+03 
       3.501809266283e-02       1.961250861015e+03 
       3.517902124285e-02       1.951282179405e+03 
       3.534082748000e-02       1.941332006184e+03 
       3.550353837635e-02       1.931400500439e+03 
       3.566718200743e-02       1.921487801227e+03 
       3.583178757769e-02       1.911594027075e+03 
       3.599738547971e-02       1.901719275656e+03 
       3.616400735721e-02       1.891863623655e+03 
       3.633168617231e-02       1.882027126339e+03 
       3.650045627741e-02       1.872209816937e+03 
       3.667035349183e-02       1.862411706422e+03 
       3.684141518395e-02       1.852632783081e+03 
       3.701368035902e-02       1.842873011833e+03 
       3.718718975329e-02       1.833132333637e+03 
       3.736198593494e-02       1.823410664614e+03 
       3.753811341242e-02       1.813707895266e+03 
       3.771561875085e-02       1.804023889768e+03 
       3.789455069720e-02       1.794358484301e+03 
       3.807496031509e-02       1.784711486603e+03 
       3.825690113006e-02       1.775082674785e+03 
       3.844042928630e-02       1.765471796499e+03 
       3.862560371592e-02       1.755878567690e+03 
       3.881248632208e-02       1.746302673030e+03 
       3.900114217712e-02       1.736743764968e+03 
       3.919163973745e-02       1.727201463816e+03 
       3.938405107674e-02       1.717675357185e+03 
       3.957845213925e-02       1.708165000311e+03 
       3.977492301568e-02       1.698669915325e+03 
       3.997354824352e-02       1.689189590335e+03 
       4.017441713501e-02       1.679723478348e+03 
       4.037762413538e-02       1.670270995478e+03 
       4.058326921498e-02       1.660831518538e+03 
       4.079145829908e-02       1.651404382131e+03 
       4.100230373980e-02       1.641988875804e+03 
       4.121592483501e-02       1.632584240357e+03 
       4.143244839995e-02       1.623189664060e+03 
       4.165200939814e-02       1.613804279658e+03 
       4.187475163875e-02       1.604427159912e+03 
       4.210082854912e-02       1.595057314330e+03 
       4.233040403214e-02       1.585693685017e+03 
       4.256365341969e-02       1.576335142797e+03 
       4.280076453521e-02       1.566980482281e+03 
       4.304193888051e-02       1.557628417109e+03 
       4.328739296425e-02       1.548277574478e+03 
       4.353735979260e-02       1.538926489149e+03 
       4.379209054596e-02       1.529573595872e+03 
       4.405185646978e-02       1.520217221951e+03 
       4.431695101236e-02       1.510855578187e+03 
       4.458769224870e-02       1.501486747751e+03 
       4.486442563643e-02       1.492108673075e+03 
       4.514752715868e-02       1.482719140147e+03 
       4.543740691934e-02       1.473315758925e+03 
       4.573451326908e-02       1.463895939170e+03 
       4.603933755636e-02       1.454456862876e+03 
       4.635241961732e-02       1.444995450964e+03 
       4.667435414239e-02       1.435508326444e+03 
       4.700579808762e-02       1.425991774273e+03 
       4.734747933616e-02       1.416441695460e+03 
       4.770020686185e-02       1.406853555241e+03 
       4.806488270602e-02       1.397222317140e+03 
       4.844251615262e-02       1.387542354767e+03 
       4.883424058081e-02       1.377807332513e+03 
       4.924133359344e-02       1.368010047169e+03 
       4.966524117165e-02       1.358142231231e+03 
       5.010760679966e-02       1.348194314875e+03 
       5.057030675025e-02       1.338155137126e+03 
       5.105549303531e-02       1.328011570125e+03 
       5.156564592246e-02       1.317748000138e+03 
       5.210363841409e-02       1.307345605596e+03 
       5.267281569310e-02       1.296781386323e+03 
       5.327709325701e-02       1.286026884710e+03 
       5.392107825634e-02       1.275046443769e+03 
       5.461021930991e-02       1.263794712084e+03 
       5.535099051921e-02       1.252213034005e+03 
       5.615111495044e-02       1.240224400300e+03 
       5.701983028462e-02       1.227726410553e+03 
       5.796819229941e-02       1.214581046890e+03 
