# Matter power spectrum P(k) at redshift z=3
# for k=1.17563e-05 to 1.4771 h/Mpc,
# number of wavenumbers equal to 612
#    1:k (h/Mpc)              2:P (Mpc/h)^3        
       1.175626718033e-05       3.020014416476e+00 
       2.612203793855e-05       6.537413186251e+00 
       4.055095443291e-05       1.000346058370e+01 
       5.509133357976e-05       1.345471883764e+01 
       6.979248794860e-05       1.691347746514e+01 
       8.470527215914e-05       2.039738609915e+01 
       9.988265083660e-05       2.392220969567e+01 
       1.153802973345e-04       2.750299563836e+01 
       1.312572324841e-04       3.115470510439e+01 
       1.475765126421e-04       3.489262521681e+01 
       1.644059761833e-04       3.873268193958e+01 
       1.818190571787e-04       4.269170684588e+01 
       1.998956741144e-04       4.678768408345e+01 
       2.187231998593e-04       5.103999154721e+01 
       2.383975163004e-04       5.546964375103e+01 
       2.590241526196e-04       6.009953974416e+01 
       2.807194994129e-04       6.495471609087e+01 
       3.036120809150e-04       7.006260159935e+01 
       3.278438534629e-04       7.545326661940e+01 
       3.535714789058e-04       8.115965493997e+01 
       3.809674958484e-04       8.721778031682e+01 
       4.102212786487e-04       9.366686228996e+01 
       4.415396340894e-04       1.005493672881e+02 
       4.751468403459e-04       1.079109115474e+02 
       5.112838868121e-04       1.157999732218e+02 
       5.502066350822e-04       1.242673542693e+02 
       5.921826046508e-04       1.333653314120e+02 
       6.374861106341e-04       1.431464438977e+02 
       6.863915671246e-04       1.536618886496e+02 
       7.391649381066e-04       1.649595344829e+02 
       7.960535750572e-04       1.770816270454e+02 
       8.572750080032e-04       1.900623296784e+02 
       9.230056010719e-04       2.039253192271e+02 
       9.933702561321e-04       2.186817094071e+02 
       1.068434445977e-03       2.343285848460e+02 
       1.148199702734e-03       2.508483803693e+02 
       1.232603266294e-03       2.682092328674e+02 
       1.321521990423e-03       2.863662883198e+02 
       1.414779962722e-03       3.052638009633e+02 
       1.477104874446e-03       3.178102579374e+02 
       1.512158786692e-03       3.248377537227e+02 
       1.613409218291e-03       3.450186839633e+02 
       1.718262872670e-03       3.657344194362e+02 
       1.826442960759e-03       3.869124990954e+02 
       1.937673373654e-03       4.084821453803e+02 
       2.051685799609e-03       4.303757430331e+02 
       2.168224859934e-03       4.525298477623e+02 
       2.287051454280e-03       4.748840449475e+02 
       2.407944613933e-03       4.973859863362e+02 
       2.530702194141e-03       5.199875061896e+02 
       2.655140719113e-03       5.426450380022e+02 
       2.781094649323e-03       5.653197420570e+02 
       2.908415287202e-03       5.879771931636e+02 
       3.036969484894e-03       6.105870284930e+02 
       3.166638271891e-03       6.331225777170e+02 
       3.297315483194e-03       6.555604919491e+02 
       3.428906440048e-03       6.778803840644e+02 
       3.561326714241e-03       7.000644899404e+02 
       3.694500992079e-03       7.220973573644e+02 
       3.828362044025e-03       7.439655665487e+02 
       3.962849799350e-03       7.656574834331e+02 
       4.097910521113e-03       7.871630445225e+02 
       4.233496074475e-03       8.084735701811e+02 
       4.369563280220e-03       8.295816023035e+02 
       4.506073345094e-03       8.504807621177e+02 
       4.642991360673e-03       8.711656243964e+02 
       4.780285862981e-03       8.916316052669e+02 
       4.917928445668e-03       9.118748618119e+02 
       5.055893420231e-03       9.318922024535e+02 
       5.194157517464e-03       9.516810075788e+02 
       5.332699624954e-03       9.712391599404e+02 
       5.471500556092e-03       9.905649842037e+02 
       5.610542846589e-03       1.009657194705e+03 
       5.749810575020e-03       1.028514850252e+03 
       5.889289204356e-03       1.047137314720e+03 
       6.028965441830e-03       1.065524222309e+03 
       6.168827114851e-03       1.083675336630e+03 
       6.308863060957e-03       1.101590819679e+03 
       6.449063030072e-03       1.119270977592e+03 
       6.589417597565e-03       1.136716247831e+03 
       6.729918086793e-03       1.153927215206e+03 
       6.870556499984e-03       1.170904595038e+03 
       7.011325456478e-03       1.187649220196e+03 
       7.152218137448e-03       1.204162029307e+03 
       7.293228236349e-03       1.220444056186e+03 
       7.434349914443e-03       1.236496420879e+03 
       7.575577760805e-03       1.252320319818e+03 
       7.716906756320e-03       1.267917017761e+03 
       7.858332241223e-03       1.283287838655e+03 
       7.999849885789e-03       1.298434157920e+03 
       8.141455663833e-03       1.313357395204e+03 
       8.283145828720e-03       1.328059007692e+03 
       8.424916891614e-03       1.342540485511e+03 
       8.566765601737e-03       1.356803346717e+03 
       8.708688928428e-03       1.370849134845e+03 
       8.850684044813e-03       1.384679415369e+03 
       8.992748312933e-03       1.398295774106e+03 
       9.134879270176e-03       1.411699814409e+03 
       9.277074616886e-03       1.424893155430e+03 
       9.419332205040e-03       1.437877429669e+03 
       9.561650027883e-03       1.450654280841e+03 
       9.704026210433e-03       1.463225361474e+03 
       9.846459000776e-03       1.475592331047e+03 
       9.988946762072e-03       1.487756855489e+03 
       1.013148796522e-02       1.499720595938e+03 
       1.027408118209e-02       1.511485456624e+03 
       1.041672507935e-02       1.523052969622e+03 
       1.055941841267e-02       1.534424671769e+03 
       1.070216002154e-02       1.545602220646e+03 
       1.084494882431e-02       1.556587269383e+03 
       1.098778381376e-02       1.567381462453e+03 
       1.113066405293e-02       1.577986435619e+03 
       1.127358867127e-02       1.588403815329e+03 
       1.141655686111e-02       1.598635218530e+03 
       1.155956787435e-02       1.608682252659e+03 
       1.170262101945e-02       1.618546515867e+03 
       1.184571565858e-02       1.628229597193e+03 
       1.198885120503e-02       1.637733077284e+03 
       1.213202712078e-02       1.647058528313e+03 
       1.227524291424e-02       1.656207514568e+03 
       1.241849813821e-02       1.665181592551e+03 
       1.256179238788e-02       1.673982311062e+03 
       1.270512529911e-02       1.682611210978e+03 
       1.284849654671e-02       1.691069824957e+03 
       1.299190584292e-02       1.699359677121e+03 
       1.313535293596e-02       1.707482282549e+03 
       1.327883760873e-02       1.715439147013e+03 
       1.342235967755e-02       1.723231766899e+03 
       1.356591899101e-02       1.730861631185e+03 
       1.370951542896e-02       1.738330201055e+03 
       1.385314890145e-02       1.745638966115e+03 
       1.399681934791e-02       1.752789382187e+03 
       1.414052673624e-02       1.759782895283e+03 
       1.428427106206e-02       1.766620953124e+03 
       1.442805234803e-02       1.773304997074e+03 
       1.457187064314e-02       1.779836463588e+03 
       1.471572602211e-02       1.786216784816e+03 
       1.477104874446e-02       1.788630109293e+03 
       1.485961858490e-02       1.792447389147e+03 
       1.500354845610e-02       1.798529701651e+03 
       1.514751578458e-02       1.804465143677e+03 
       1.529152074298e-02       1.810255132685e+03 
       1.543556352739e-02       1.815901080175e+03 
       1.557964435697e-02       1.821404383638e+03 
       1.572376347366e-02       1.826766411939e+03 
       1.586792114193e-02       1.831988495775e+03 
       1.601211764850e-02       1.837071942419e+03 
       1.615635330217e-02       1.842018064982e+03 
       1.630062843362e-02       1.846828193275e+03 
       1.644494339527e-02       1.851503663846e+03 
       1.658929856118e-02       1.856045808210e+03 
       1.673369432690e-02       1.860455947761e+03 
       1.687813110946e-02       1.864735393221e+03 
       1.702260934728e-02       1.868885445537e+03 
       1.716712950019e-02       1.872907396900e+03 
       1.731169204938e-02       1.876802531486e+03 
       1.745629749748e-02       1.880572125955e+03 
       1.760094636856e-02       1.884217449778e+03 
       1.774563920820e-02       1.887739765445e+03 
       1.789037658361e-02       1.891140328627e+03 
       1.803515908369e-02       1.894420388277e+03 
       1.817998731920e-02       1.897581186716e+03 
       1.832486192284e-02       1.900623959688e+03 
       1.846978354950e-02       1.903549936401e+03 
       1.861475287635e-02       1.906360339570e+03 
       1.875977060310e-02       1.909056385459e+03 
       1.890483745219e-02       1.911639283830e+03 
       1.904995416904e-02       1.914110238075e+03 
       1.919512152229e-02       1.916470445142e+03 
       1.934034030406e-02       1.918721095574e+03 
       1.948561133025e-02       1.920863373517e+03 
       1.963093544087e-02       1.922898456717e+03 
       1.977631350029e-02       1.924827516536e+03 
       1.992174639764e-02       1.926651717945e+03 
       2.006723504716e-02       1.928372219520e+03 
       2.021278038854e-02       1.929990173459e+03 
       2.035838338733e-02       1.931506725570e+03 
       2.050404503535e-02       1.932923015271e+03 
       2.064976635111e-02       1.934240175598e+03 
       2.079554838027e-02       1.935459333186e+03 
       2.094139219606e-02       1.936581608317e+03 
       2.108729889981e-02       1.937608114862e+03 
       2.123326962140e-02       1.938539960348e+03 
       2.137930551982e-02       1.939378245933e+03 
       2.152540778368e-02       1.940124066424e+03 
       2.167157763176e-02       1.940778510313e+03 
       2.181781631361e-02       1.941342659761e+03 
       2.196412511011e-02       1.941817590666e+03 
       2.211050533413e-02       1.942204372632e+03 
       2.225695833111e-02       1.942504069040e+03 
       2.240348547977e-02       1.942717737009e+03 
       2.255008819275e-02       1.942846427505e+03 
       2.269676791733e-02       1.942891185289e+03 
       2.284352613615e-02       1.942853048930e+03 
       2.299036436794e-02       1.942733050854e+03 
       2.313728416833e-02       1.942532217303e+03 
       2.328428713059e-02       1.942251568330e+03 
       2.343137488652e-02       1.941892117843e+03 
       2.357854910720e-02       1.941454873491e+03 
       2.372581150395e-02       1.940940836685e+03 
       2.387316382920e-02       1.940351002548e+03 
       2.402060787739e-02       1.939686359851e+03 
       2.416814548595e-02       1.938947891004e+03 
       2.431577853628e-02       1.938136571957e+03 
       2.446350895478e-02       1.937253372134e+03 
       2.461133871386e-02       1.936299254425e+03 
       2.475926983304e-02       1.935275175085e+03 
       2.490730438009e-02       1.934182083672e+03 
       2.505544447212e-02       1.933020923012e+03 
       2.520369227678e-02       1.931792629132e+03 
       2.535205001351e-02       1.930498131223e+03 
       2.550051995475e-02       1.929138351637e+03 
       2.564910442727e-02       1.927714205754e+03 
       2.579780581348e-02       1.926226602031e+03 
       2.594662655281e-02       1.924676442022e+03 
       2.609556914315e-02       1.923064620240e+03 
       2.624463614226e-02       1.921392024268e+03 
       2.639383016935e-02       1.919659534635e+03 
       2.654315390658e-02       1.917868024840e+03 
       2.669261010069e-02       1.916018361382e+03 
       2.684220156465e-02       1.914111403737e+03 
       2.699193117938e-02       1.912148004290e+03 
       2.714180189550e-02       1.910129008327e+03 
       2.729181673513e-02       1.908055254072e+03 
       2.744197879384e-02       1.905927572599e+03 
       2.759229124250e-02       1.903746787798e+03 
       2.774275732935e-02       1.901513716357e+03 
       2.789338038205e-02       1.899229167719e+03 
       2.804416380980e-02       1.896893944147e+03 
       2.819511110556e-02       1.894508840277e+03 
       2.834622584833e-02       1.892074643576e+03 
       2.849751170553e-02       1.889592134036e+03 
       2.864897243538e-02       1.887062084128e+03 
       2.880061188948e-02       1.884485258717e+03 
       2.895243401538e-02       1.881862415066e+03 
       2.910444285929e-02       1.879194302796e+03 
       2.925664256884e-02       1.876481663809e+03 
       2.940903739600e-02       1.873725232190e+03 
       2.956163170004e-02       1.870925734200e+03 
       2.971442995063e-02       1.868083888259e+03 
       2.986743673103e-02       1.865200404806e+03 
       3.002065674140e-02       1.862275986353e+03 
       3.017409480224e-02       1.859311327381e+03 
       3.032775585795e-02       1.856307114293e+03 
       3.048164498048e-02       1.853264025381e+03 
       3.063576737318e-02       1.850182730825e+03 
       3.079012837476e-02       1.847063892551e+03 
       3.094473346335e-02       1.843908164249e+03 
       3.109958826083e-02       1.840716191367e+03 
       3.125469853719e-02       1.837488610999e+03 
       3.141007021513e-02       1.834226051827e+03 
       3.156570937484e-02       1.830929134138e+03 
       3.172162225892e-02       1.827598469709e+03 
       3.187781527753e-02       1.824234661845e+03 
       3.203429501374e-02       1.820838305253e+03 
       3.219106822903e-02       1.817409985975e+03 
       3.234814186912e-02       1.813950281450e+03 
       3.250552306992e-02       1.810459760312e+03 
       3.266321916377e-02       1.806938982427e+03 
       3.282123768598e-02       1.803388498860e+03 
       3.297958638153e-02       1.799808851656e+03 
       3.313827321216e-02       1.796200573988e+03 
       3.329730636367e-02       1.792564189905e+03 
       3.345669425354e-02       1.788900214395e+03 
       3.361644553897e-02       1.785209153222e+03 
       3.377656912509e-02       1.781491502869e+03 
       3.393707417370e-02       1.777747750493e+03 
       3.409797011226e-02       1.773978373791e+03 
       3.425926664334e-02       1.770183840892e+03 
       3.442097375448e-02       1.766364610404e+03 
       3.458310172846e-02       1.762521131099e+03 
       3.474566115408e-02       1.758653841929e+03 
       3.490866293739e-02       1.754763172035e+03 
       3.507211831345e-02       1.750849540462e+03 
       3.523603885866e-02       1.746913356066e+03 
       3.540043650358e-02       1.742955017522e+03 
       3.556532354649e-02       1.738974913232e+03 
       3.573071266746e-02       1.734973420963e+03 
       3.589661694319e-02       1.730950907984e+03 
       3.606304986255e-02       1.726907730968e+03 
       3.623002534280e-02       1.722844235559e+03 
       3.639755774678e-02       1.718760756622e+03 
       3.656566190078e-02       1.714657617901e+03 
       3.673435311343e-02       1.710535131812e+03 
       3.690364719552e-02       1.706393599553e+03 
       3.707356048082e-02       1.702233310644e+03 
       3.724410984801e-02       1.698054542991e+03 
       3.741531274376e-02       1.693857562540e+03 
       3.758718720700e-02       1.689642623218e+03 
       3.775975189459e-02       1.685409966583e+03 
       3.793302610823e-02       1.681159821702e+03 
       3.810702982303e-02       1.676892404980e+03 
       3.828178371747e-02       1.672607919700e+03 
       3.845730920522e-02       1.668306555967e+03 
       3.863362846865e-02       1.663988490384e+03 
       3.881076449427e-02       1.659653885592e+03 
       3.898874111032e-02       1.655302890241e+03 
       3.916758302640e-02       1.650935638503e+03 
       3.934731587564e-02       1.646552249793e+03 
       3.952796625925e-02       1.642152828377e+03 
       3.970956179384e-02       1.637737463004e+03 
       3.989213116168e-02       1.633306226630e+03 
       4.007570416400e-02       1.628859175815e+03 
       4.026031177773e-02       1.624396350459e+03 
       4.044598621582e-02       1.619917773242e+03 
       4.063276099147e-02       1.615423449113e+03 
       4.082067098653e-02       1.610913364899e+03 
       4.100975252444e-02       1.606387488597e+03 
       4.120004344812e-02       1.601845768753e+03 
       4.139158320305e-02       1.597288133960e+03 
       4.158441292617e-02       1.592714492078e+03 
       4.177857554089e-02       1.588124729513e+03 
       4.197411585893e-02       1.583518710074e+03 
       4.217108068935e-02       1.578896274802e+03 
       4.236951895561e-02       1.574257240454e+03 
       4.256948182119e-02       1.569601398732e+03 
       4.277102282459e-02       1.564928515242e+03 
       4.297419802472e-02       1.560238328219e+03 
       4.317906615728e-02       1.555530547403e+03 
       4.338568880351e-02       1.550804852754e+03 
       4.359413057226e-02       1.546060892953e+03 
       4.380445929679e-02       1.541298283794e+03 
       4.401674624755e-02       1.536516606823e+03 
       4.423106636278e-02       1.531715407378e+03 
       4.444749849848e-02       1.526894192524e+03 
       4.466612569986e-02       1.522052429413e+03 
       4.488703549646e-02       1.517189542687e+03 
       4.511032022343e-02       1.512304912185e+03 
       4.533607737180e-02       1.507397870184e+03 
       4.556440997085e-02       1.502467698733e+03 
       4.579542700617e-02       1.497513626368e+03 
       4.602924387746e-02       1.492534824591e+03 
       4.626598290057e-02       1.487530404233e+03 
       4.650577385901e-02       1.482499411294e+03 
       4.674875461076e-02       1.477440822349e+03 
       4.699507175717e-02       1.472353539574e+03 
       4.724488138147e-02       1.467236385146e+03 
       4.749834986586e-02       1.462088095238e+03 
       4.775565479708e-02       1.456907313246e+03 
       4.801698597214e-02       1.451692582182e+03 
       4.828254651757e-02       1.446442336532e+03 
       4.855255413769e-02       1.441154892772e+03 
       4.882724250973e-02       1.435828439211e+03 
       4.910686284695e-02       1.430461024550e+03 
       4.939168565379e-02       1.425050544685e+03 
       4.968200270191e-02       1.419594728432e+03 
       4.997812926035e-02       1.414091121055e+03 
       5.028040661943e-02       1.408537065908e+03 
       5.058920495500e-02       1.402929683277e+03 
       5.090492658833e-02       1.397265846701e+03 
       5.122800970748e-02       1.391542155579e+03 
       5.155893262890e-02       1.385754903799e+03 
       5.189821869360e-02       1.379900043638e+03 
       5.224644191145e-02       1.373973143941e+03 
       5.260423349110e-02       1.367969341574e+03 
       5.297228942228e-02       1.361883284646e+03 
       5.335137931370e-02       1.355709066254e+03 
       5.374235673566e-02       1.349440146076e+03 
       5.414617137338e-02       1.343069257778e+03 
       5.456388336923e-02       1.336588298834e+03 
       5.499668032282e-02       1.329988198342e+03 
       5.544589753330e-02       1.323258757983e+03 
       5.591304221437e-02       1.316388458698e+03 
       5.639982259941e-02       1.309364224553e+03 
       5.690818309164e-02       1.302171131822e+03 
       5.744034691741e-02       1.294792047734e+03 
       5.799886812506e-02       1.287207177969e+03 
       5.858669525676e-02       1.279393495676e+03 
       5.920724962306e-02       1.271324013729e+03 
       5.986452184144e-02       1.262966851321e+03 
       6.056319114898e-02       1.254284023412e+03 
       6.130877290538e-02       1.245229857717e+03 
       6.210780049048e-02       1.235748908914e+03 
       6.296804806802e-02       1.225773187228e+03 
       6.389879957384e-02       1.215218463724e+03 
       6.491116506806e-02       1.203979343908e+03 
       6.601843497979e-02       1.191922740000e+03 
       6.723643989501e-02       1.178879375336e+03 
       6.858383887488e-02       1.164633163164e+03 
       7.008218018129e-02       1.148908996272e+03 
       7.175545586860e-02       1.131361231079e+03 
