# dimensionless total [l(l+1)/2pi] C_l's
# for l=2 to 3100, i.e. number of multipoles equal to 3099
#
# -> if you prefer output in CAMB/HealPix/LensPix units/order, set 'format' to 'camb' in input file
# -> if you don't want to see such a header, set 'headers' to 'no' in input file
# -> for CMB lensing (phi), these are C_l^phi-phi for the lensing potential.
#    Remember the conversion factors:
#    C_l^dd (deflection) = l(l+1) C_l^phi-phi
#    C_l^gg (shear/convergence) = 1/4 (l(l+1))^2 C_l^phi-phi
#
# 1:l     2:TT                     3:EE                     4:TE                     5:BB                     6:phiphi                 7:TPhi                   8:Ephi               
    2       3.223068326095e-10       5.584605116974e-15       4.712584945626e-13       0.000000000000e+00       8.738777645883e-09       9.605111755291e-10      -2.176004650847e-12 
    3       2.922182265503e-10       7.678363063092e-15       6.299100720731e-13       0.000000000000e+00       5.468004067517e-09       6.952725826223e-10      -1.613511703198e-12 
    4       2.619378646227e-10       7.046031061551e-15       6.149009494390e-13       0.000000000000e+00       3.847900278261e-09       5.345318757245e-10      -1.067131335419e-12 
    5       2.374370432529e-10       4.996778728050e-15       5.148436469781e-13       0.000000000000e+00       2.895436234500e-09       4.275592397370e-10      -6.313169138640e-13 
    6       2.184592043999e-10       2.985364525621e-15       3.950311950752e-13       0.000000000000e+00       2.274525596695e-09       3.515981418832e-10      -3.028527254566e-13 
    7       2.037847702541e-10       1.681056886948e-15       2.899300423167e-13       0.000000000000e+00       1.842002089964e-09       2.950899576280e-10      -6.276031827958e-14 
    8       1.923459417112e-10       1.027760871923e-15       2.163124534895e-13       0.000000000000e+00       1.525969827966e-09       2.516506620028e-10       1.067417184711e-13 
    9       1.833663599116e-10       7.384940667358e-16       1.806367558584e-13       0.000000000000e+00       1.286821898599e-09       2.175028848619e-10       2.140651797859e-13 
   10       1.762779696985e-10       6.181424813125e-16       1.763691447726e-13       0.000000000000e+00       1.101017689655e-09       1.902078983732e-10       2.602940876674e-13 
   11       1.708121266431e-10       5.754489960895e-16       1.828003783573e-13       0.000000000000e+00       9.457435230836e-10       1.686538788507e-10       2.535860123275e-13 
   12       1.666877068104e-10       5.546303395135e-16       1.798603716118e-13       0.000000000000e+00       8.272649767940e-10       1.512703162862e-10       1.981198536049e-13 
   13       1.635378372772e-10       5.261949593908e-16       1.667853200218e-13       0.000000000000e+00       7.300374585119e-10       1.342270125433e-10       1.250874754687e-13 
   14       1.610531030385e-10       4.865264652534e-16       1.555140486337e-13       0.000000000000e+00       6.489032619320e-10       1.221866947273e-10       5.453401098588e-14 
   15       1.590451494434e-10       4.419651795914e-16       1.501712959071e-13       0.000000000000e+00       5.797991850437e-10       1.109794923436e-10       3.638079993258e-15 
   16       1.574938188761e-10       4.047162775010e-16       1.469560218242e-13       0.000000000000e+00       5.216305324143e-10       9.945122997322e-11      -2.562103961346e-14 
   17       1.563598514942e-10       3.907674632464e-16       1.452286790841e-13       0.000000000000e+00       4.715174022170e-10       9.175251763598e-11      -3.017925194469e-14 
   18       1.555772931768e-10       4.092098191284e-16       1.472406324837e-13       0.000000000000e+00       4.278387841187e-10       8.405452616336e-11      -2.487857821715e-14 
   19       1.551533980621e-10       4.589549516298e-16       1.526740364441e-13       0.000000000000e+00       3.900080880914e-10       7.627354284759e-11      -1.727458006842e-14 
   20       1.550101379791e-10       5.341676433926e-16       1.599173886013e-13       0.000000000000e+00       3.565753907674e-10       7.020458738971e-11      -1.148293119165e-14 
   21       1.551361408346e-10       6.318015061258e-16       1.684903553667e-13       0.000000000000e+00       3.271324384629e-10       6.545025954133e-11      -9.360750942021e-15 
   22       1.554834742709e-10       7.488002362544e-16       1.781441800400e-13       0.000000000000e+00       3.011125204214e-10       6.081698613753e-11      -1.156522911008e-14 
   23       1.560485443042e-10       8.833068769964e-16       1.884901271925e-13       0.000000000000e+00       2.780824615193e-10       5.624573324529e-11      -1.627925745081e-14 
   24       1.568008844365e-10       1.033329796637e-15       1.989701516786e-13       0.000000000000e+00       2.573650392162e-10       5.200720373716e-11      -2.070282364688e-14 
   25       1.577229027394e-10       1.197141999926e-15       2.089352719859e-13       0.000000000000e+00       2.386895939289e-10       4.820062484615e-11      -2.365012672622e-14 
   26       1.587778659649e-10       1.373383458425e-15       2.177188775353e-13       0.000000000000e+00       2.217543401781e-10       4.483571081975e-11      -2.451368038842e-14 
   27       1.599737664661e-10       1.563677725565e-15       2.251592756066e-13       0.000000000000e+00       2.064901308284e-10       4.188176744692e-11      -2.339355074903e-14 
   28       1.613048567645e-10       1.771043690858e-15       2.312878868019e-13       0.000000000000e+00       1.927195871267e-10       3.924754315177e-11      -2.074891563767e-14 
   29       1.627414417783e-10       1.998768132899e-15       2.362032967319e-13       0.000000000000e+00       1.801171381035e-10       3.680892543260e-11      -1.722608754564e-14 
   30       1.642874314190e-10       2.248719976226e-15       2.400862322198e-13       0.000000000000e+00       1.686138483562e-10       3.454626562150e-11      -1.354914974007e-14 
   31       1.659397328042e-10       2.522392871215e-15       2.432015651473e-13       0.000000000000e+00       1.581224405014e-10       3.245529218259e-11      -1.061477748181e-14 
   32       1.676804368344e-10       2.821142001170e-15       2.458101900204e-13       0.000000000000e+00       1.484751109616e-10       3.051791648035e-11      -9.258862405543e-15 
   33       1.695112853535e-10       3.145510048715e-15       2.478503385925e-13       0.000000000000e+00       1.396183516480e-10       2.873118755906e-11      -9.285236532845e-15 
   34       1.714282981454e-10       3.495627059053e-15       2.491374946513e-13       0.000000000000e+00       1.314731832511e-10       2.708600695795e-11      -1.006796791276e-14 
   35       1.734180749657e-10       3.871548308776e-15       2.494646365176e-13       0.000000000000e+00       1.239181694241e-10       2.556406106444e-11      -1.092672818099e-14 
   36       1.754823378674e-10       4.273888827209e-15       2.486743902215e-13       0.000000000000e+00       1.169342342695e-10       2.415851190988e-11      -1.160245446024e-14 
   37       1.776195510125e-10       4.703392406933e-15       2.466081404094e-13       0.000000000000e+00       1.105005699505e-10       2.285854013201e-11      -1.193576536819e-14 
   38       1.798169525622e-10       5.160759084270e-15       2.430849886548e-13       0.000000000000e+00       1.045509244770e-10       2.164265662294e-11      -1.173877170347e-14 
   39       1.820573292779e-10       5.646677693969e-15       2.379481791747e-13       0.000000000000e+00       9.899754463451e-11       2.048626474699e-11      -1.087444511140e-14 
   40       1.843449160659e-10       6.161945372896e-15       2.312271006693e-13       0.000000000000e+00       9.382302981813e-11       1.938975119061e-11      -9.531476895598e-15 
   41       1.866864027721e-10       6.707382964793e-15       2.230279916560e-13       0.000000000000e+00       8.901277585593e-11       1.835838912431e-11      -8.040254907639e-15 
   42       1.890832328300e-10       7.283801761953e-15       2.134928848969e-13       0.000000000000e+00       8.452751516378e-11       1.739436199303e-11      -6.804262810073e-15 
   43       1.915335845440e-10       7.891977144022e-15       2.027559589399e-13       0.000000000000e+00       8.031758147625e-11       1.649716546649e-11      -6.194871562660e-15 
   44       1.940403564397e-10       8.532561452664e-15       1.907912217559e-13       0.000000000000e+00       7.637591140816e-11       1.566567403357e-11      -6.185891872799e-15 
   45       1.966047444567e-10       9.206142683912e-15       1.775209682903e-13       0.000000000000e+00       7.269808797989e-11       1.489621289583e-11      -6.612630749292e-15 
   46       1.992235489427e-10       9.913265433093e-15       1.628567321954e-13       0.000000000000e+00       6.926644793152e-11       1.418166395820e-11      -7.269284412627e-15 
   47       2.018887853453e-10       1.065442852518e-14       1.466985427921e-13       0.000000000000e+00       6.604905196527e-11       1.351121052662e-11      -7.906480131382e-15 
   48       2.045909528616e-10       1.143006817351e-14       1.289507437880e-13       0.000000000000e+00       6.300947834183e-11       1.287342575577e-11      -8.293246128164e-15 
   49       2.073308383165e-10       1.224050737141e-14       1.095764560925e-13       0.000000000000e+00       6.014187096926e-11       1.226716317999e-11      -8.429313647845e-15 
   50       2.101103707798e-10       1.308598816334e-14       8.855719077919e-14       0.000000000000e+00       5.744400170215e-11       1.169329745162e-11      -8.388436841756e-15 
   51       2.129290564310e-10       1.396668183951e-14       6.587772717551e-14       0.000000000000e+00       5.490684377764e-11       1.115156600416e-11      -8.259998329405e-15 
   52       2.157837758829e-10       1.488268582782e-14       4.152621481167e-14       0.000000000000e+00       5.251409426981e-11       1.064048434942e-11      -8.149838181277e-15 
   53       2.186708037949e-10       1.583407260041e-14       1.549038202870e-14       0.000000000000e+00       5.024726592957e-11       1.015797682870e-11      -8.155454874302e-15 
   54       2.215929439475e-10       1.682105831151e-14      -1.225521744471e-14       0.000000000000e+00       4.810359911936e-11       9.703654258103e-12      -8.282213429692e-15 
   55       2.245538756646e-10       1.784387210679e-14      -4.173955283795e-14       0.000000000000e+00       4.608192351070e-11       9.276974338556e-12      -8.507035594853e-15 
   56       2.275559850851e-10       1.890270699835e-14      -7.299156996581e-14       0.000000000000e+00       4.417725332547e-11       8.876523993720e-12      -8.801901839886e-15 
   57       2.306002556640e-10       1.999771893765e-14      -1.060402525221e-13       0.000000000000e+00       4.238054330747e-11       8.499964665250e-12      -9.133605789965e-15 
   58       2.336861586734e-10       2.112902588834e-14      -1.409146833734e-13       0.000000000000e+00       4.067844469400e-11       8.143977608061e-12      -9.463508657733e-15 
   59       2.368123846088e-10       2.229667767609e-14      -1.776372832540e-13       0.000000000000e+00       3.905692604172e-11       7.805116531501e-12      -9.755363018231e-15 
   60       2.399794844482e-10       2.350055946698e-14      -2.162015540671e-13       0.000000000000e+00       3.751367185673e-11       7.482720992255e-12      -1.000146356521e-14 
   61       2.431876493384e-10       2.474046419558e-14      -2.565892660582e-13       0.000000000000e+00       3.604813712722e-11       7.176584097586e-12      -1.020214612604e-14 
   62       2.464358442807e-10       2.601611793864e-14      -2.987766594467e-13       0.000000000000e+00       3.465782492620e-11       6.886081189290e-12      -1.035827968580e-14 
   63       2.497217271375e-10       2.732717799738e-14      -3.427342744455e-13       0.000000000000e+00       3.333817339519e-11       6.610145896443e-12      -1.047129435671e-14 
   64       2.530415676383e-10       2.867323097981e-14      -3.884267812802e-13       0.000000000000e+00       3.208244272775e-11       6.347246188161e-12      -1.054320934754e-14 
   65       2.563917011419e-10       3.005379384908e-14      -4.358212968595e-13       0.000000000000e+00       3.088354894384e-11       6.095828337804e-12      -1.057617773129e-14 
   66       2.597734296953e-10       3.146832163426e-14      -4.849147637699e-13       0.000000000000e+00       2.974027045557e-11       5.855811888290e-12      -1.057094586729e-14 
   67       2.631890172173e-10       3.291619792933e-14      -5.357120829545e-13       0.000000000000e+00       2.865215780126e-11       5.627369422146e-12      -1.052811674525e-14 
   68       2.666402089791e-10       3.439673027069e-14      -5.882182048553e-13       0.000000000000e+00       2.761764537372e-11       5.410475931368e-12      -1.044861858062e-14 
   69       2.701281935412e-10       3.590914830239e-14      -6.424381968217e-13       0.000000000000e+00       2.663399285954e-11       5.204897958610e-12      -1.033371926787e-14 
   70       2.736535646893e-10       3.745260194144e-14      -6.983773105178e-13       0.000000000000e+00       2.569722667842e-11       5.010182738368e-12      -1.018504083378e-14 
   71       2.772162833709e-10       3.902615954300e-14      -7.560410493313e-13       0.000000000000e+00       2.480208142240e-11       4.825647338168e-12      -1.000457389076e-14 
   72       2.808160760586e-10       4.062886854778e-14      -8.154288451221e-13       0.000000000000e+00       2.394332924328e-11       4.650545602218e-12      -9.795183931372e-15 
   73       2.844538029478e-10       4.225995497859e-14      -8.765135335106e-13       0.000000000000e+00       2.312019356917e-11       4.484630211650e-12      -9.562210603593e-15 
   74       2.881302848208e-10       4.391865909975e-14      -9.392580423460e-13       0.000000000000e+00       2.233268071676e-11       4.327679390450e-12      -9.312202964997e-15 
   75       2.918458622677e-10       4.560417592668e-14      -1.003621356126e-12       0.000000000000e+00       2.158024059466e-11       4.179321978540e-12      -9.052480087065e-15 
   76       2.956003675880e-10       4.731565481763e-14      -1.069558437500e-12       0.000000000000e+00       2.086173983092e-11       4.039030632382e-12      -8.791156737725e-15 
   77       2.993930966901e-10       4.905219906553e-14      -1.137020148770e-12       0.000000000000e+00       2.017543490073e-11       3.906115025582e-12      -8.537169063895e-15 
   78       3.032227809926e-10       5.081286548973e-14      -1.205953173396e-12       0.000000000000e+00       1.951894525392e-11       3.779715049489e-12      -8.300300274024e-15 
   79       3.070875593245e-10       5.259666402781e-14      -1.276299937495e-12       0.000000000000e+00       1.888922644263e-11       3.658794013805e-12      -8.091206320637e-15 
   80       3.109856495718e-10       5.440254109562e-14      -1.348004141858e-12       0.000000000000e+00       1.828331282251e-11       3.542376816205e-12      -7.918943668191e-15 
   81       3.149175597651e-10       5.622932723754e-14      -1.421028637094e-12       0.000000000000e+00       1.770075331584e-11       3.430327043809e-12      -7.783001648633e-15 
   82       3.188842114842e-10       5.807577959710e-14      -1.495340524024e-12       0.000000000000e+00       1.714155158223e-11       3.322693047289e-12      -7.679926801900e-15 
   83       3.228862593112e-10       5.994059664332e-14      -1.570905843907e-12       0.000000000000e+00       1.660542159002e-11       3.219472730544e-12      -7.605677632607e-15 
   84       3.269240756882e-10       6.182241746191e-14      -1.647689603834e-12       0.000000000000e+00       1.609177499529e-11       3.120611287762e-12      -7.555604034916e-15 
   85       3.309977357770e-10       6.371982104649e-14      -1.725655802133e-12       0.000000000000e+00       1.559970852081e-11       3.025998940489e-12      -7.524426717390e-15 
   86       3.351070023174e-10       6.563132558976e-14      -1.804767453770e-12       0.000000000000e+00       1.512799133499e-11       2.935468674698e-12      -7.506216627867e-15 
   87       3.392513104863e-10       6.755538777474e-14      -1.884986615747e-12       0.000000000000e+00       1.467505243086e-11       2.848793977852e-12      -7.494374378311e-15 
   88       3.434297527561e-10       6.949040206589e-14      -1.966274412506e-12       0.000000000000e+00       1.423896800501e-11       2.765686575974e-12      -7.481609669685e-15 
   89       3.476414356760e-10       7.143474571160e-14      -2.048589304666e-12       0.000000000000e+00       1.381791107705e-11       2.685865117936e-12      -7.461432563942e-15 
   90       3.518866473595e-10       7.338692338661e-14      -2.131881528637e-12       0.000000000000e+00       1.341160868930e-11       2.609278508757e-12      -7.432940243053e-15 
   91       3.561658460930e-10       7.534544403891e-14      -2.216097827500e-12       0.000000000000e+00       1.302009110464e-11       2.535913603766e-12      -7.396746721982e-15 
   92       3.604792952820e-10       7.730877717475e-14      -2.301183129126e-12       0.000000000000e+00       1.264324429850e-11       2.465726196824e-12      -7.353539891522e-15 
   93       3.648270538812e-10       7.927535283459e-14      -2.387080545252e-12       0.000000000000e+00       1.228080426283e-11       2.398639820265e-12      -7.304083592553e-15 
   94       3.692089668255e-10       8.124356156918e-14      -2.473731370569e-12       0.000000000000e+00       1.193235130996e-11       2.334544544845e-12      -7.249219690303e-15 
   95       3.736246554603e-10       8.321175441554e-14      -2.561075081807e-12       0.000000000000e+00       1.159730437657e-11       2.273295779689e-12      -7.189870148601e-15 
   96       3.780735079726e-10       8.517824287294e-14      -2.649049336814e-12       0.000000000000e+00       1.127491532757e-11       2.214713072237e-12      -7.127039104139e-15 
   97       3.825546698216e-10       8.714129887899e-14      -2.737589973646e-12       0.000000000000e+00       1.096426325999e-11       2.158578908190e-12      -7.061814940728e-15 
   98       3.870670341689e-10       8.909915478554e-14      -2.826631009646e-12       0.000000000000e+00       1.066424880695e-11       2.104637511458e-12      -6.995372363555e-15 
   99       3.916095274497e-10       9.105003792000e-14      -2.916105923435e-12       0.000000000000e+00       1.037384100872e-11       2.052648573531e-12      -6.928759883994e-15 
  100       3.961820329225e-10       9.299227990646e-14      -3.005951710037e-12       0.000000000000e+00       1.009287013707e-11       2.002559719198e-12      -6.862223444373e-15 
  101       4.007845807635e-10       9.492422285642e-14      -3.096105401099e-12       0.000000000000e+00       9.821337108453e-12       1.954356353415e-12      -6.795790398144e-15 
  102       4.054170586813e-10       9.684418655519e-14      -3.186502847676e-12       0.000000000000e+00       9.559168333851e-12       1.908008383717e-12      -6.729475032279e-15 
  103       4.100792059241e-10       9.875046885712e-14      -3.277078734866e-12       0.000000000000e+00       9.306213084088e-12       1.863469685980e-12      -6.663278040443e-15 
  104       4.147706072887e-10       1.006413460809e-13      -3.367766596444e-12       0.000000000000e+00       9.062240855170e-12       1.820677570171e-12      -6.597185996170e-15 
  105       4.194906871280e-10       1.025150734045e-13      -3.458498829495e-12       0.000000000000e+00       8.826938733619e-12       1.779552246114e-12      -6.531170826033e-15 
  106       4.242387033596e-10       1.043698852610e-13      -3.549206709051e-12       0.000000000000e+00       8.599908761806e-12       1.739996289239e-12      -6.465189282822e-15 
  107       4.290137414734e-10       1.062039957330e-13      -3.639820402724e-12       0.000000000000e+00       8.380665303285e-12       1.701894106350e-12      -6.399182418714e-15 
