# Matter power spectrum P(k) at redshift z=3
# for k=1.04471e-05 to 1.4771 h/Mpc,
# number of wavenumbers equal to 610
#    1:k (h/Mpc)              2:P (Mpc/h)^3        
       1.044710778456e-05       5.056387904882e+00 
       2.352499620073e-05       1.108772401093e+01 
       3.664984215946e-05       1.702481422302e+01 
       4.985804852804e-05       2.292796241377e+01 
       6.318663460318e-05       2.883225733218e+01 
       7.667357633159e-05       3.476452691627e+01 
       9.035815767348e-05       4.074808118958e+01 
       1.042813379168e-04       4.680466466230e+01 
       1.184861397855e-04       5.295546835708e+01 
       1.330180632196e-04       5.922175354762e+01 
       1.479255297055e-04       6.562529480811e+01 
       1.632603619546e-04       7.218873348099e+01 
       1.790783035056e-04       7.893588631499e+01 
       1.954395823693e-04       8.589203314920e+01 
       2.124095220339e-04       9.308419702637e+01 
       2.300592018393e-04       1.005414241734e+02 
       2.484661667110e-04       1.082950673560e+02 
       2.677151832479e-04       1.163790729693e+02 
       2.878990348656e-04       1.248302691786e+02 
       3.091193427000e-04       1.336886490436e+02 
       3.314873908376e-04       1.429976385128e+02 
       3.551249236880e-04       1.528043342251e+02 
       3.801648695413e-04       1.631596900153e+02 
       4.067519273244e-04       1.741171764275e+02 
       4.350429334598e-04       1.857386418485e+02 
       4.652069033858e-04       1.980850077629e+02 
       4.974246196847e-04       2.112225267440e+02 
       5.318876193774e-04       2.252199995739e+02 
       5.687964222270e-04       2.401479800638e+02 
       6.083578473175e-04       2.560773689981e+02 
       6.507812957038e-04       2.730777569460e+02 
       6.962739414064e-04       2.912119664338e+02 
       7.450348772151e-04       3.105452177328e+02 
       7.972484041576e-04       3.311244012152e+02 
       8.530768209561e-04       3.529898467974e+02 
       9.126532350826e-04       3.761613429632e+02 
       9.760750409206e-04       4.006490580458e+02 
       1.043398750531e-03       4.264378105914e+02 
       1.114636787170e-03       4.534975915382e+02 
       1.189756655821e-03       4.817756942988e+02 
       1.268682618058e-03       5.112041191122e+02 
       1.351299679685e-03       5.416983296962e+02 
       1.437459419845e-03       5.731633174261e+02 
       1.477104874446e-03       5.875258948749e+02 
       1.526987008205e-03       6.054944421122e+02 
       1.619688700500e-03       6.385834340617e+02 
       1.715359163907e-03       6.723193159824e+02 
       1.813788127656e-03       7.065928186168e+02 
       1.914766034724e-03       7.412970419349e+02 
       2.018088546480e-03       7.763308251125e+02 
       2.123559896017e-03       8.115988419327e+02 
       2.230995186067e-03       8.470159173703e+02 
       2.340221784260e-03       8.825004088129e+02 
       2.451079990199e-03       9.179827122594e+02 
       2.563423145669e-03       9.533958173023e+02 
       2.677117341510e-03       9.886828951282e+02 
       2.792040849952e-03       1.023792137018e+03 
       2.908083385036e-03       1.058682291565e+03 
       3.025145269360e-03       1.093312031051e+03 
       3.143136564410e-03       1.127645096374e+03 
       3.261976204565e-03       1.161656423276e+03 
       3.381591161524e-03       1.195320401747e+03 
       3.501915655796e-03       1.228611273847e+03 
       3.622890424572e-03       1.261512413326e+03 
       3.744462050043e-03       1.294009409621e+03 
       3.866582348729e-03       1.326086094814e+03 
       3.989207820046e-03       1.357732368948e+03 
       4.112299150891e-03       1.388939006703e+03 
       4.235820772265e-03       1.419698141354e+03 
       4.359740463569e-03       1.450004262567e+03 
       4.484029000138e-03       1.479852318192e+03 
       4.608659839712e-03       1.509238792555e+03 
       4.733608843764e-03       1.538160476606e+03 
       4.858854029910e-03       1.566618111159e+03 
       4.984375351934e-03       1.594607295775e+03 
       5.110154504307e-03       1.622131700204e+03 
       5.236174748391e-03       1.649188299468e+03 
       5.362420757829e-03       1.675780529175e+03 
       5.488878480875e-03       1.701909889477e+03 
       5.615535017722e-03       1.727576304893e+03 
       5.742378511059e-03       1.752783987442e+03 
       5.869398048343e-03       1.777534292183e+03 
       5.996583574418e-03       1.801830692380e+03 
       6.123925813304e-03       1.825676036294e+03 
       6.251416198103e-03       1.849073406394e+03 
       6.379046808096e-03       1.872026666817e+03 
       6.506810312234e-03       1.894538007151e+03 
       6.634699918297e-03       1.916613021687e+03 
       6.762709327105e-03       1.938256652682e+03 
       6.890832691211e-03       1.959469303510e+03 
       7.019064577612e-03       1.980256693168e+03 
       7.147399934020e-03       2.000624347078e+03 
       7.275834058339e-03       2.020574186724e+03 
       7.404362570993e-03       2.040111534187e+03 
       7.532981389812e-03       2.059240723575e+03 
       7.661686707215e-03       2.077965623958e+03 
       7.790474969457e-03       2.096290881785e+03 
       7.919342857728e-03       2.114220832385e+03 
       8.048287270915e-03       2.131759807617e+03 
       8.177305309874e-03       2.148912046747e+03 
       8.306394263062e-03       2.165682160701e+03 
       8.435551593380e-03       2.182074529404e+03 
       8.564774926146e-03       2.198093977911e+03 
       8.694062038053e-03       2.213743805278e+03 
       8.823410847051e-03       2.229029698599e+03 
       8.952819403048e-03       2.243951148575e+03 
       9.082285879367e-03       2.258519318639e+03 
       9.211808564885e-03       2.272734788226e+03 
       9.341385856791e-03       2.286600521937e+03 
       9.471016253917e-03       2.300122980273e+03 
       9.600698350587e-03       2.313304874257e+03 
       9.730430830930e-03       2.326144930482e+03 
       9.860212463645e-03       2.338657206977e+03 
       9.990042097138e-03       2.350840216774e+03 
       1.011991865505e-02       2.362699074349e+03 
       1.024984113208e-02       2.374236537973e+03 
       1.037980859018e-02       2.385456750171e+03 
       1.050982015495e-02       2.396366367283e+03 
       1.063987501235e-02       2.406957051851e+03 
       1.076997240564e-02       2.417248554284e+03 
       1.090011163252e-02       2.427237411911e+03 
       1.103029204250e-02       2.436920924512e+03 
       1.116051303443e-02       2.446315064333e+03 
       1.129077405425e-02       2.455415745909e+03 
       1.142107459283e-02       2.464231565306e+03 
       1.155141418403e-02       2.472761275405e+03 
       1.168179240286e-02       2.481011845496e+03 
       1.181220886377e-02       2.488979497005e+03 
       1.194266321907e-02       2.496676796262e+03 
       1.207315515747e-02       2.504104518903e+03 
       1.220368440267e-02       2.511261731863e+03 
       1.233425071214e-02       2.518159784665e+03 
       1.246485387591e-02       2.524791004610e+03 
       1.259549371546e-02       2.531168650785e+03 
       1.272617008273e-02       2.537292408948e+03 
       1.285688285912e-02       2.543160972510e+03 
       1.298763195469e-02       2.548784963255e+03 
       1.311841730728e-02       2.554159649940e+03 
       1.324923888179e-02       2.559294973032e+03 
       1.338009666945e-02       2.564194282658e+03 
       1.351099068725e-02       2.568858245759e+03 
       1.364192097726e-02       2.573282924142e+03 
       1.377288760616e-02       2.577484149529e+03 
       1.390389066467e-02       2.581455174428e+03 
       1.403493026719e-02       2.585207344902e+03 
       1.416600655127e-02       2.588733246808e+03 
       1.429711967733e-02       2.592045251283e+03 
       1.442826982827e-02       2.595137304721e+03 
       1.455945720918e-02       2.598023008983e+03 
       1.469068204705e-02       2.600692992784e+03 
       1.477104874446e-02       2.602226304483e+03 
       1.482194459054e-02       2.603158224229e+03 
       1.495324510977e-02       2.605420372565e+03 
       1.508458389613e-02       2.607480823404e+03 
       1.521596126214e-02       2.609340722901e+03 
       1.534737754128e-02       2.611008461869e+03 
       1.547883308795e-02       2.612477927929e+03 
       1.561032827732e-02       2.613760162916e+03 
       1.574186350532e-02       2.614854406430e+03 
       1.587343918860e-02       2.615762491672e+03 
       1.600505576448e-02       2.616489578757e+03 
       1.613671369103e-02       2.617032293778e+03 
       1.626841344703e-02       2.617399161647e+03 
       1.640015553206e-02       2.617589345221e+03 
       1.653194046657e-02       2.617607089666e+03 
       1.666376879193e-02       2.617455536574e+03 
       1.679564107059e-02       2.617132327322e+03 
       1.692755788618e-02       2.616644456860e+03 
       1.705951984365e-02       2.615993818426e+03 
       1.719152756943e-02       2.615182246501e+03 
       1.732358171163e-02       2.614213196120e+03 
       1.745568294023e-02       2.613085651226e+03 
       1.758783194727e-02       2.611807994499e+03 
       1.772002944710e-02       2.610376254098e+03 
       1.785227617663e-02       2.608797329935e+03 
       1.798457289560e-02       2.607071023649e+03 
       1.811692038685e-02       2.605202275408e+03 
       1.824931945660e-02       2.603189304146e+03 
       1.838177093480e-02       2.601037839217e+03 
       1.851427567544e-02       2.598749530440e+03 
       1.864683455691e-02       2.596325501287e+03 
       1.877944848234e-02       2.593765774169e+03 
       1.891211838003e-02       2.591075464965e+03 
       1.904484520378e-02       2.588256281784e+03 
       1.917762993338e-02       2.585308723883e+03 
       1.931047357499e-02       2.582234365527e+03 
       1.944337716161e-02       2.579036269210e+03 
       1.957634175356e-02       2.575717188540e+03 
       1.970936843893e-02       2.572276304296e+03 
       1.984245833414e-02       2.568718986781e+03 
       1.997561258441e-02       2.565043574255e+03 
       2.010883236435e-02       2.561255790703e+03 
       2.024211887849e-02       2.557355172761e+03 
       2.037547336187e-02       2.553346259221e+03 
       2.050889708064e-02       2.549230681960e+03 
       2.064239133270e-02       2.545008650176e+03 
       2.077595744833e-02       2.540685671210e+03 
       2.090959679084e-02       2.536261789510e+03 
       2.104331075728e-02       2.531740439428e+03 
       2.117710077915e-02       2.527121702045e+03 
       2.131096832311e-02       2.522410757283e+03 
       2.144491489175e-02       2.517606569844e+03 
       2.157894202439e-02       2.512710585509e+03 
       2.171305129784e-02       2.507726600618e+03 
       2.184724432727e-02       2.502655465161e+03 
       2.198152276703e-02       2.497496933377e+03 
       2.211588831157e-02       2.492244858134e+03 
       2.225034269635e-02       2.486907770718e+03 
       2.238488769873e-02       2.481491927543e+03 
       2.251952513899e-02       2.475993495095e+03 
       2.265425688132e-02       2.470417385420e+03 
       2.278908483483e-02       2.464764673150e+03 
       2.292401095464e-02       2.459036326339e+03 
       2.305903724295e-02       2.453234995735e+03 
       2.319416575018e-02       2.447359153946e+03 
       2.332939857613e-02       2.441415058659e+03 
       2.346473787121e-02       2.435401573910e+03 
       2.360018583764e-02       2.429321675065e+03 
       2.373574473074e-02       2.423175525010e+03 
       2.387141686027e-02       2.416963363429e+03 
       2.400720459176e-02       2.410691512378e+03 
       2.414311034793e-02       2.404357136412e+03 
       2.427913661014e-02       2.397962364474e+03 
       2.441528591987e-02       2.391509706434e+03 
       2.455156088027e-02       2.385001390584e+03 
       2.468796415777e-02       2.378436275731e+03 
       2.482449848368e-02       2.371817480897e+03 
       2.496116665592e-02       2.365146565969e+03 
       2.509797154075e-02       2.358422822848e+03 
       2.523491607461e-02       2.351651026699e+03 
       2.537200326594e-02       2.344829552088e+03 
       2.550923619716e-02       2.337961257622e+03 
       2.564661802662e-02       2.331046710902e+03 
       2.578415199067e-02       2.324087455207e+03 
       2.592184140582e-02       2.317085839675e+03 
       2.605968967090e-02       2.310040378982e+03 
       2.619770026935e-02       2.302954903462e+03 
       2.633587677157e-02       2.295831233793e+03 
       2.647422283736e-02       2.288666845733e+03 
       2.661274221843e-02       2.281466740203e+03 
       2.675143876100e-02       2.274228957580e+03 
       2.689031640850e-02       2.266958002934e+03 
       2.702937920436e-02       2.259652351705e+03 
       2.716863129490e-02       2.252314220589e+03 
       2.730807693231e-02       2.244944608829e+03 
       2.744772047776e-02       2.237544483613e+03 
       2.758756640460e-02       2.230115424532e+03 
       2.772761930169e-02       2.222658136534e+03 
       2.786788387685e-02       2.215173049226e+03 
       2.800836496043e-02       2.207662265950e+03 
       2.814906750901e-02       2.200126170968e+03 
       2.828999660926e-02       2.192565762305e+03 
       2.843115748194e-02       2.184982214619e+03 
       2.857255548598e-02       2.177377127241e+03 
       2.871419612286e-02       2.169750261373e+03 
       2.885608504102e-02       2.162103573742e+03 
       2.899822804051e-02       2.154436811054e+03 
       2.914063107783e-02       2.146752534413e+03 
       2.928330027089e-02       2.139050266864e+03 
       2.942624190427e-02       2.131330757019e+03 
       2.956946243458e-02       2.123596053305e+03 
       2.971296849615e-02       2.115846012316e+03 
       2.985676690682e-02       2.108082088285e+03 
       3.000086467412e-02       2.100304290160e+03 
       3.014526900156e-02       2.092514615583e+03 
       3.028998729527e-02       2.084712284006e+03 
       3.043502717088e-02       2.076899669141e+03 
       3.058039646075e-02       2.069076354636e+03 
       3.072610322139e-02       2.061243342660e+03 
       3.087215574134e-02       2.053401748070e+03 
       3.101856254929e-02       2.045551783986e+03 
       3.116533242257e-02       2.037694167372e+03 
       3.131247439611e-02       2.029829905825e+03 
       3.145999777163e-02       2.021959790077e+03 
       3.160791212741e-02       2.014083585737e+03 
       3.175622732841e-02       2.006202794991e+03 
       3.190495353684e-02       1.998317476610e+03 
       3.205410122331e-02       1.990428540400e+03 
       3.220368117839e-02       1.982536779063e+03 
       3.235370452482e-02       1.974641949564e+03 
       3.250418273018e-02       1.966745042092e+03 
       3.265512762032e-02       1.958846546863e+03 
       3.280655139325e-02       1.950947530759e+03 
       3.295846663393e-02       1.943047635568e+03 
       3.311088632959e-02       1.935147473164e+03 
       3.326382388592e-02       1.927247618777e+03 
       3.341729314407e-02       1.919348882117e+03 
       3.357130839852e-02       1.911450920224e+03 
       3.372588441578e-02       1.903554983568e+03 
       3.388103645419e-02       1.895660529655e+03 
       3.403678028470e-02       1.887769008994e+03 
       3.419313221269e-02       1.879879957463e+03 
       3.435010910110e-02       1.871993666251e+03 
       3.450772839467e-02       1.864111381547e+03 
       3.466600814561e-02       1.856232220614e+03 
       3.482496704063e-02       1.848357226792e+03 
       3.498462442950e-02       1.840486815521e+03 
       3.514500035523e-02       1.832620518006e+03 
       3.530611558600e-02       1.824759199403e+03 
       3.546799164887e-02       1.816902702321e+03 
       3.563065086553e-02       1.809051692158e+03 
       3.579411639015e-02       1.801205620180e+03 
       3.595841224945e-02       1.793365293393e+03 
       3.612356338527e-02       1.785530730650e+03 
       3.628959569969e-02       1.777701645164e+03 
       3.645653610301e-02       1.769878518916e+03 
       3.662441256466e-02       1.762061572790e+03 
       3.679325416744e-02       1.754250254101e+03 
       3.696309116519e-02       1.746445327962e+03 
       3.713395504424e-02       1.738646200493e+03 
       3.730587858893e-02       1.730853328325e+03 
       3.747889595148e-02       1.723066379842e+03 
       3.765304272663e-02       1.715285513616e+03 
       3.782835603139e-02       1.707510580961e+03 
       3.800487459033e-02       1.699741676773e+03 
       3.818263882690e-02       1.691978178685e+03 
       3.836169096129e-02       1.684220619188e+03 
       3.854207511534e-02       1.676468330580e+03 
       3.872383742523e-02       1.668721271288e+03 
       3.890702616249e-02       1.660979389601e+03 
       3.909169186425e-02       1.653242344226e+03 
       3.927788747344e-02       1.645509976948e+03 
       3.946566848990e-02       1.637781885031e+03 
       3.965509313346e-02       1.630057652966e+03 
       3.984622252016e-02       1.622337103018e+03 
       4.003912085272e-02       1.614619896227e+03 
       4.023385562690e-02       1.606905309861e+03 
       4.043049785513e-02       1.599193166623e+03 
       4.062912230937e-02       1.591482831351e+03 
       4.082980778491e-02       1.583773950950e+03 
       4.103263738767e-02       1.576065631192e+03 
       4.123769884711e-02       1.568357549905e+03 
       4.144508485794e-02       1.560648903248e+03 
       4.165489345340e-02       1.552939053099e+03 
       4.186722841404e-02       1.545227148861e+03 
       4.208219971574e-02       1.537512428330e+03 
       4.229992402178e-02       1.529794177455e+03 
       4.252052522401e-02       1.522071082936e+03 
       4.274413503917e-02       1.514342504944e+03 
       4.297089366708e-02       1.506607344478e+03 
       4.320095051840e-02       1.498864464278e+03 
       4.343446502105e-02       1.491112534219e+03 
       4.367160751533e-02       1.483350607623e+03 
       4.391256024965e-02       1.475576941990e+03 
       4.415751849046e-02       1.467790260499e+03 
       4.440669176234e-02       1.459989030706e+03 
       4.466030523646e-02       1.452171559801e+03 
       4.491860128902e-02       1.444336029675e+03 
       4.518184125474e-02       1.436480462112e+03 
       4.545030740479e-02       1.428602908398e+03 
       4.572430518394e-02       1.420701048841e+03 
       4.600416574778e-02       1.412772374525e+03 
       4.629024884859e-02       1.404814313353e+03 
       4.658294612764e-02       1.396824159327e+03 
       4.688268488277e-02       1.388798877399e+03 
       4.718993239384e-02       1.380734906641e+03 
       4.750520090553e-02       1.372628930261e+03 
       4.782905338734e-02       1.364476679945e+03 
       4.816211021665e-02       1.356274192445e+03 
       4.850505696178e-02       1.348016312569e+03 
       4.885865348240e-02       1.339698032412e+03 
       4.922374461340e-02       1.331313451443e+03 
       4.960127276135e-02       1.322856013355e+03 
       4.999229282082e-02       1.314318378663e+03 
       5.039798991797e-02       1.305692351669e+03 
       5.081970061492e-02       1.296968525376e+03 
       5.125893837006e-02       1.288136483268e+03 
       5.171742425466e-02       1.279184032927e+03 
       5.219712418807e-02       1.270097284601e+03 
       5.270029428646e-02       1.260859918303e+03 
       5.322953634054e-02       1.251452762463e+03 
       5.378786596154e-02       1.241853029283e+03 
       5.437879657558e-02       1.232033680839e+03 
       5.500644319871e-02       1.221961725512e+03 
       5.567565074735e-02       1.211596842990e+03 
       5.639215240080e-02       1.200888999463e+03 
       5.716276392592e-02       1.189775277884e+03 
       5.799561922908e-02       1.178175466851e+03 
       5.890044936072e-02       1.165986184016e+03 
       5.988889914659e-02       1.153072202539e+03 
       6.097485780646e-02       1.139254894087e+03 
