# dimensionless total lensed [l(l+1)/2pi] C_l's
# for l=2 to 2600, i.e. number of multipoles equal to 2599
#
# -> if you prefer output in CAMB/HealPix/LensPix units/order, set 'format' to 'camb' in input file
# -> if you don't want to see such a header, set 'headers' to 'no' in input file
# -> for CMB lensing (phi), these are C_l^phi-phi for the lensing potential.
#    Remember the conversion factors:
#    C_l^dd (deflection) = l(l+1) C_l^phi-phi
#    C_l^gg (shear/convergence) = 1/4 (l(l+1))^2 C_l^phi-phi
#
# 1:l     2:TT                     3:EE                     4:TE                     5:BB                     6:phiphi                 7:TPhi                   8:Ephi               
    2       1.438911282648e-10       4.629291532243e-15       3.791168357674e-13       2.495455171655e-19       8.603642427871e-09       4.697591862181e-10      -1.989211546177e-12 
    3       1.362416931534e-10       6.283800154689e-15       4.345225334065e-13       4.991250842608e-19       5.318775329642e-09       3.342766019495e-10      -1.560517939674e-12 
    4       1.289038805758e-10       5.779201405511e-15       4.137551533986e-13       8.319530101735e-19       3.708562176074e-09       2.534768719999e-10      -1.071496549125e-12 
    5       1.233687231132e-10       4.104394085042e-15       3.578826870978e-13       1.248080676104e-18       2.771519891313e-09       2.003553400952e-10      -6.421762946732e-13 
    6       1.195072493188e-10       2.405667721033e-15       2.915187633935e-13       1.747577088987e-18       2.166276064027e-09       1.630455693832e-10      -3.088894703021e-13 
    7       1.169688750422e-10       1.286509377214e-15       2.296140633033e-13       2.330531565811e-18       1.747460722276e-09       1.356531028036e-10      -7.970714449300e-14 
    8       1.154832469051e-10       7.636965357765e-16       1.793640176375e-13       2.997056486060e-18       1.443136115862e-09       1.148897138895e-10       5.389960654689e-14 
    9       1.147351396100e-10       5.810813178771e-16       1.432861559994e-13       3.747289897811e-18       1.214264060408e-09       9.873818790895e-11       1.101094202737e-13 
   10       1.145520190025e-10       5.030221484519e-16       1.208885840889e-13       4.581397758831e-18       1.037600980602e-09       8.590767991589e-11       1.116866207077e-13 
   11       1.148198947005e-10       4.292415087026e-16       1.098923291466e-13       5.499575601525e-18       8.756555706046e-10       7.590142308549e-11       8.192450420057e-14 
   12       1.154358603601e-10       3.605421218264e-16       1.073392001835e-13       6.502049429682e-18       7.652022931986e-10       6.714488678114e-11       4.021586637154e-14 
   13       1.162879616613e-10       3.211940762534e-16       1.103410981401e-13       7.589075684885e-18       6.745120619823e-10       5.997400085893e-11       1.420583102291e-15 
   14       1.173655372480e-10       3.151234624795e-16       1.164940646312e-13       8.760940160016e-18       5.990590643324e-10       5.390690299310e-11      -2.611129092540e-14 
   15       1.186223361568e-10       3.280397202235e-16       1.239913485361e-13       1.001795578469e-17       5.355450248888e-10       4.857821091354e-11      -3.966175013262e-14 
   16       1.199987334723e-10       3.474421481878e-16       1.317817976382e-13       1.136045926068e-17       4.815378396891e-10       4.406599640364e-11      -4.040008503435e-14 
   17       1.215055524140e-10       3.731385490771e-16       1.395144874506e-13       1.278880658203e-17       4.352055337777e-10       4.020048256320e-11      -3.235370079998e-14 
   18       1.231166611345e-10       4.135740772867e-16       1.471324363118e-13       1.430336816031e-17       3.949899809845e-10       3.678976877314e-11      -2.061381580058e-14 
   19       1.248317829646e-10       4.735387212886e-16       1.549117304382e-13       1.590451930138e-17       3.602532666731e-10       3.378127275974e-11      -8.958481548114e-15 
   20       1.266079590235e-10       5.551604519323e-16       1.632266158433e-13       1.759263988085e-17       3.296580219445e-10       3.108918889081e-11      -9.664854810799e-16 
   21       1.284565679001e-10       6.564706900040e-16       1.721803462710e-13       1.936809832798e-17       3.027241285263e-10       2.871368374655e-11       2.378920242578e-15 
   22       1.303734343600e-10       7.737935968971e-16       1.817294309032e-13       2.123125207194e-17       2.788072756777e-10       2.663666606859e-11       1.351259466775e-15 
   23       1.323551521127e-10       9.073085962138e-16       1.917017253233e-13       2.318243245131e-17       2.575789580741e-10       2.479216353122e-11      -2.729025864573e-15 
   24       1.343780724440e-10       1.058084264688e-15       2.018085002151e-13       2.522194506168e-17       2.385487971003e-10       2.308423772141e-11      -7.893078704326e-15 
   25       1.364489362630e-10       1.225716560559e-15       2.116696116313e-13       2.735005677680e-17       2.214930245953e-10       2.153001499523e-11      -1.257222483853e-14 
   26       1.385676196579e-10       1.409344519774e-15       2.208541948828e-13       2.956699574271e-17       2.061029860942e-10       2.015979368744e-11      -1.535345658447e-14 
   27       1.407317577739e-10       1.609517735789e-15       2.291172154629e-13       3.187294277616e-17       1.921945200147e-10       1.893379309839e-11      -1.598562323784e-14 
   28       1.429285313162e-10       1.827397617324e-15       2.362936115874e-13       3.426803173922e-17       1.795284092205e-10       1.778597159129e-11      -1.471509493399e-14 
   29       1.451634209494e-10       2.064804894941e-15       2.423756848849e-13       3.675235200384e-17       1.680400912684e-10       1.671557224679e-11      -1.213449255907e-14 
   30       1.474348648571e-10       2.323995753001e-15       2.474362324140e-13       3.932594021351e-17       1.576061598465e-10       1.573606908692e-11      -9.127373362445e-15 
   31       1.497307094968e-10       2.607205130873e-15       2.515766275437e-13       4.198878327326e-17       1.480137721537e-10       1.485234120289e-11      -6.653515845765e-15 
   32       1.520553500303e-10       2.915338733772e-15       2.548518249308e-13       4.474084595598e-17       1.392135997131e-10       1.405608629935e-11      -5.049569126674e-15 
   33       1.544100627198e-10       3.248776426883e-15       2.573209748812e-13       4.758204728894e-17       1.311437242954e-10       1.332682856847e-11      -4.472970256409e-15 
   34       1.567893752683e-10       3.607838461311e-15       2.590288075138e-13       5.051226450999e-17       1.236915187182e-10       1.263979793612e-11      -4.984023092637e-15 
   35       1.591976845548e-10       3.993292684376e-15       2.598679724857e-13       5.353138393523e-17       1.168188280499e-10       1.199310136145e-11      -6.207268829890e-15 
   36       1.616367117229e-10       4.406013492760e-15       2.596663579531e-13       5.663926378565e-17       1.104703832844e-10       1.138915102895e-11      -7.537752830172e-15 
   37       1.641035737637e-10       4.846844752759e-15       2.582463485349e-13       5.983574405041e-17       1.045634479567e-10       1.082780005275e-11      -8.371671470853e-15 
   38       1.666022724473e-10       5.316597985814e-15       2.555115388829e-13       6.312073330852e-17       9.908283978308e-11       1.030849559084e-11      -8.628134968561e-15 
   39       1.691347946085e-10       5.816048496279e-15       2.513872197769e-13       6.649414951902e-17       9.401132414968e-11       9.828327642092e-12      -8.396205297139e-15 
   40       1.716972542884e-10       6.345932008037e-15       2.457970244337e-13       6.995589692288e-17       8.930071806895e-11       9.381092789249e-12      -7.798242560770e-15 
   41       1.742826642023e-10       6.906935115549e-15       2.386818187242e-13       7.350589452737e-17       8.488869829222e-11       8.959387011632e-12      -6.983006877273e-15 
   42       1.768918056737e-10       7.499670167959e-15       2.300640013829e-13       7.714417239626e-17       8.076229838895e-11       8.562379162150e-12      -6.096531171706e-15 
   43       1.795248676625e-10       8.124687119017e-15       2.200039720362e-13       8.087080692588e-17       7.691053654438e-11       8.190094936813e-12      -5.305779957022e-15 
   44       1.821779968161e-10       8.782475936980e-15       2.085841364848e-13       8.468589723961e-17       7.330535620012e-11       7.841145678572e-12      -4.808828083667e-15 
   45       1.848461175952e-10       9.473504147624e-15       1.958778874379e-13       8.858957667151e-17       6.991164895575e-11       7.513353265406e-12      -4.776608601939e-15 
   46       1.875332917928e-10       1.019835103302e-14       1.818426531302e-13       9.258204636928e-17       6.672409955528e-11       7.206125324118e-12      -5.153313469086e-15 
   47       1.902448109520e-10       1.095760764423e-14       1.663969209236e-13       9.666355530479e-17       6.373904397645e-11       6.918589601669e-12      -5.799262528007e-15 
   48       1.929840758969e-10       1.175183818532e-14       1.494490480655e-13       1.008343943292e-16       6.094335811362e-11       6.648839699996e-12      -6.544024579328e-15 
   49       1.957524017202e-10       1.258157890195e-14       1.308966090396e-13       1.050948988106e-16       5.831375404574e-11       6.393859977412e-12      -7.184692510541e-15 
   50       1.985496340818e-10       1.344728762111e-14       1.106452147640e-13       1.094454268224e-16       5.582380114612e-11       6.150422635491e-12      -7.539506214202e-15 
   51       2.013766477486e-10       1.434917880113e-14       8.867250647237e-14       1.138862806086e-16       5.346886882492e-11       5.918240276287e-12      -7.629882376761e-15 
   52       2.042331891648e-10       1.528734178683e-14       6.498040410577e-14       1.184177683603e-16       5.124673776817e-11       5.697539258598e-12      -7.544813073211e-15 
   53       2.071169713035e-10       1.626178289292e-14       3.957741007165e-14       1.230402282548e-16       4.915013469723e-11       5.488133651124e-12      -7.390695302032e-15 
   54       2.100235168345e-10       1.727242197036e-14       1.247887291772e-14       1.277540299426e-16       4.716639215870e-11       5.289395883774e-12      -7.292210716159e-15 
   55       2.129482019076e-10       1.831917424505e-14      -1.630262165342e-14       1.325595191332e-16       4.528131501852e-11       5.100508992549e-12      -7.361649844095e-15 
   56       2.158933413491e-10       1.940222750767e-14      -4.678947713404e-14       1.374568318257e-16       4.349268413297e-11       4.921363969744e-12      -7.595945506578e-15 
   57       2.188625888754e-10       2.052182776939e-14      -7.901440373329e-14       1.424460365341e-16       4.179951137481e-11       4.751833928253e-12      -7.955601208012e-15 
   58       2.218588211394e-10       2.167819991369e-14      -1.130113654725e-13       1.475271864316e-16       4.019795436383e-11       4.591494061444e-12      -8.393663467462e-15 
   59       2.248840666363e-10       2.287154758493e-14      -1.488157011603e-13       1.527003186211e-16       3.868114015436e-11       4.439603265636e-12      -8.855372114177e-15 
   60       2.279394346088e-10       2.410205307701e-14      -1.864642453681e-13       1.579654534052e-16       3.723898892276e-11       4.295085762586e-12      -9.277810583117e-15 
   61       2.310255031405e-10       2.536977834093e-14      -2.259855201830e-13       1.633225587536e-16       3.586101492051e-11       4.156823919600e-12      -9.603940137812e-15 
   62       2.341437460689e-10       2.667434229418e-14      -2.673674641303e-13       1.687714360354e-16       3.454586288046e-11       4.024655090521e-12      -9.829174781298e-15 
   63       2.372953016573e-10       2.801517055270e-14      -3.105826413683e-13       1.743118072267e-16       3.329360903122e-11       3.898566933460e-12      -9.964687604094e-15 
   64       2.404804862643e-10       2.939158473602e-14      -3.555973414954e-13       1.799433456526e-16       3.210289249276e-11       3.778397622407e-12      -1.002405393232e-14 
   65       2.436987378189e-10       3.080279921848e-14      -4.023713854785e-13       1.856656741534e-16       3.097083343021e-11       3.663827343782e-12      -1.002335801436e-14 
   66       2.469485592955e-10       3.224791788044e-14      -4.508579315811e-13       1.914783632506e-16       2.989295120781e-11       3.554369792978e-12      -9.981299707526e-15 
   67       2.502274621890e-10       3.372593085946e-14      -5.010032812927e-13       1.973809293131e-16       2.886308254277e-11       3.449363670913e-12      -9.919301164713e-15 
   68       2.535330050359e-10       3.523583424664e-14      -5.527579649510e-13       2.033729072371e-16       2.787502870333e-11       3.348154542486e-12      -9.856880801011e-15 
   69       2.568662796851e-10       3.677702460141e-14      -6.061130408004e-13       2.094540896885e-16       2.692806762926e-11       3.250702209893e-12      -9.796448238990e-15 
   70       2.602290331390e-10       3.834897890685e-14      -6.610708362341e-13       2.156243332657e-16       2.602241681191e-11       3.157081698630e-12      -9.735605919819e-15 
   71       2.636226070035e-10       3.995113859500e-14      -7.176344115991e-13       2.218834883447e-16       2.515756612247e-11       3.067300215046e-12      -9.671595125322e-15 
   72       2.670479089696e-10       4.158290944240e-14      -7.758076546076e-13       2.282313991512e-16       2.433224018688e-11       2.981293511481e-12      -9.601281623210e-15 
   73       2.705053842943e-10       4.324366146572e-14      -8.355953747490e-13       2.346679038325e-16       2.354436076083e-11       2.898922251406e-12      -9.521141312309e-15 
   74       2.739949872824e-10       4.493272881732e-14      -8.970033977016e-13       2.411928345287e-16       2.279100910471e-11       2.819968374563e-12      -9.427245867789e-15 
   75       2.775161527680e-10       4.664940968086e-14      -9.600386597445e-13       2.478060174452e-16       2.206838835858e-11       2.744131462102e-12      -9.315248386391e-15 
   76       2.810682633943e-10       4.839290887206e-14      -1.024700952941e-12       2.545073712335e-16       2.137276664180e-11       2.671107041285e-12      -9.181805748674e-15 
   77       2.846522128717e-10       5.016215378807e-14      -1.090956214134e-12       2.612972226890e-16       2.070358807048e-11       2.600846019767e-12      -9.029176882041e-15 
   78       2.882690772990e-10       5.195594454994e-14      -1.158758513965e-12       2.681760490201e-16       2.006086332768e-11       2.533336176399e-12      -8.861440829178e-15 
   79       2.919196265997e-10       5.377300706134e-14      -1.228057898440e-12       2.751443867000e-16       1.944422203584e-11       2.468522495629e-12      -8.683149280943e-15 
   80       2.956043061700e-10       5.561199172929e-14      -1.298800312125e-12       2.822028335541e-16       1.885289524228e-11       2.406305212883e-12      -8.499341682642e-15 
   81       2.993232185268e-10       5.747147218481e-14      -1.370927521356e-12       2.893520508480e-16       1.828569790473e-11       2.346537859940e-12      -8.315560340300e-15 
   82       3.030761049558e-10       5.934994400368e-14      -1.444377037444e-12       2.965927653751e-16       1.774101137683e-11       2.289025310303e-12      -8.137865526940e-15 
   83       3.068623271601e-10       6.124582342712e-14      -1.519082039873e-12       3.039257715440e-16       1.721676589364e-11       2.233521824580e-12      -7.972850588855e-15 
   84       3.106812125952e-10       6.315751500937e-14      -1.594977119599e-12       3.113518566932e-16       1.671094399801e-11       2.179790869596e-12      -7.826265362083e-15 
   85       3.145331964526e-10       6.508363024792e-14      -1.672016771107e-12       3.188715582333e-16       1.622322507530e-11       2.127800251414e-12      -7.698591125509e-15 
   86       3.184188362259e-10       6.702280302055e-14      -1.750159839393e-12       3.264853698847e-16       1.575358260332e-11       2.077555897934e-12      -7.588756354557e-15 
   87       3.223384527973e-10       6.897362376187e-14      -1.829363993158e-12       3.341938156568e-16       1.530177882128e-11       2.029042058441e-12      -7.495455026063e-15 
   88       3.262921181978e-10       7.093463934253e-14      -1.909585745822e-12       3.419974506455e-16       1.486735597062e-11       1.982220387195e-12      -7.417138334804e-15 
   89       3.302796433683e-10       7.290435294831e-14      -1.990780476549e-12       3.498968618309e-16       1.444962753581e-11       1.937029027021e-12      -7.352006410031e-15 
   90       3.343005659194e-10       7.488122395925e-14      -2.072902451268e-12       3.578926688740e-16       1.404766948523e-11       1.893381692899e-12      -7.298000031996e-15 
   91       3.383541378927e-10       7.686366782886e-14      -2.155904843690e-12       3.659855249148e-16       1.366031151195e-11       1.851166755553e-12      -7.252792348484e-15 
   92       3.424393135209e-10       7.885005596318e-14      -2.239739756333e-12       3.741761173694e-16       1.328612827456e-11       1.810246325042e-12      -7.213780591344e-15 
   93       3.465550911335e-10       8.083873372625e-14      -2.324357154240e-12       3.824650594525e-16       1.292377780467e-11       1.770490489721e-12      -7.178517880695e-15 
   94       3.507016242787e-10       8.282807781648e-14      -2.409701437043e-12       3.908525443499e-16       1.257309397528e-11       1.731887914191e-12      -7.146100918516e-15 
   95       3.548792558627e-10       8.481644733640e-14      -2.495714387802e-12       3.993386402659e-16       1.223414290943e-11       1.694450258337e-12      -7.115976660099e-15 
   96       3.590881716152e-10       8.680216656148e-14      -2.582336220384e-12       4.079233943706e-16       1.190688651346e-11       1.658178076047e-12      -7.087518610364e-15 
   97       3.633283927113e-10       8.878352506813e-14      -2.669505585557e-12       4.166068320970e-16       1.159117848337e-11       1.623060381376e-12      -7.060024581401e-15 
   98       3.675997683937e-10       9.075877786162e-14      -2.757159577088e-12       4.253889564389e-16       1.128676031113e-11       1.589074214705e-12      -7.032714450010e-15 
   99       3.719019685941e-10       9.272614550409e-14      -2.845233737833e-12       4.342697472476e-16       1.099325729100e-11       1.556184208902e-12      -7.004727915243e-15 
  100       3.762344765554e-10       9.468381424245e-14      -2.933662065839e-12       4.432491605300e-16       1.071017452587e-11       1.524342155490e-12      -6.975122255944e-15 
  101       3.805965814534e-10       9.662993613638e-14      -3.022377020437e-12       4.523271277453e-16       1.043689293358e-11       1.493486570802e-12      -6.942870088295e-15 
  102       3.849873710186e-10       9.856262918624e-14      -3.111309528334e-12       4.615035551031e-16       1.017266525324e-11       1.463542262147e-12      -6.906857123351e-15 
  103       3.894057241584e-10       1.004799774611e-13      -3.200388989716e-12       4.707783228603e-16       9.916612051545e-12       1.434419893969e-12      -6.865879924588e-15 
  104       3.938505602370e-10       1.023800836827e-13      -3.289544488316e-12       4.801514502761e-16       9.667921223525e-12       1.406037068423e-12      -6.818952686065e-15 
  105       3.983216411607e-10       1.042612347919e-13      -3.378708594688e-12       4.896236173683e-16       9.426485788844e-12       1.378385744674e-12      -6.766279593480e-15 
  106       4.028188643920e-10       1.061217590906e-13      -3.467814090456e-12       4.991957126569e-16       9.192345208202e-12       1.351473160562e-12      -6.708410245820e-15 
  107       4.073420114641e-10       1.079599764786e-13      -3.556792829309e-12       5.088686749049e-16       8.965487846374e-12       1.325300936427e-12      -6.645943503722e-15 
