# dimensionless total lensed [l(l+1)/2pi] C_l's
# for l=2 to 2600, i.e. number of multipoles equal to 2599
#
# -> if you prefer output in CAMB/HealPix/LensPix units/order, set 'format' to 'camb' in input file
# -> if you don't want to see such a header, set 'headers' to 'no' in input file
# -> for CMB lensing (phi), these are C_l^phi-phi for the lensing potential.
#    Remember the conversion factors:
#    C_l^dd (deflection) = l(l+1) C_l^phi-phi
#    C_l^gg (shear/convergence) = 1/4 (l(l+1))^2 C_l^phi-phi
#
# 1:l     2:TT                     3:EE                     4:TE                     5:BB                     6:phiphi                 7:TPhi                   8:Ephi               
    2       1.438921494290e-10       4.629340614144e-15       3.791247932230e-13       2.495697844604e-19       8.598849040099e-09       4.697613670490e-10      -1.989191410638e-12 
    3       1.362419903575e-10       6.283804556471e-15       4.345225087074e-13       4.991736764163e-19       5.318554703214e-09       3.342998580516e-10      -1.560516280136e-12 
    4       1.289040023960e-10       5.779234840203e-15       4.137570891135e-13       8.320341221863e-19       3.708717107761e-09       2.534898346256e-10      -1.071489619868e-12 
    5       1.233688201781e-10       4.104411958243e-15       3.578841553590e-13       1.248202571961e-18       2.771648095364e-09       2.003624034688e-10      -6.421766627066e-13 
    6       1.195073564753e-10       2.405707345820e-15       2.915232558722e-13       1.747748112547e-18       2.166207774176e-09       1.630496688149e-10      -3.088891834615e-13 
    7       1.169690104836e-10       1.286554077669e-15       2.296205105910e-13       2.330760147887e-18       1.747295248379e-09       1.356553205890e-10      -7.970737758123e-14 
    8       1.154834022859e-10       7.637420056428e-16       1.793721225128e-13       2.997351147375e-18       1.443039435574e-09       1.148907518259e-10       5.389936547776e-14 
    9       1.147353372342e-10       5.811267997662e-16       1.432960455192e-13       3.747659247681e-18       1.214269569713e-09       9.873888967456e-11       1.101091903688e-13 
   10       1.145522708864e-10       5.030677212909e-16       1.209003426607e-13       4.581850489638e-18       1.037722178948e-09       8.590946311355e-11       1.116863348599e-13 
   11       1.148201911256e-10       4.292882572921e-16       1.099059810142e-13       5.500120479260e-18       8.756540818005e-10       7.590219952595e-11       8.192411049561e-14 
   12       1.154361868259e-10       3.605922592756e-16       1.073548012504e-13       6.502695281012e-18       7.652009230762e-10       6.714546886523e-11       4.021521018697e-14 
   13       1.162883092307e-10       3.212507141732e-16       1.103587568242e-13       7.589831381382e-18       6.745107935928e-10       5.997424839279e-11       1.419708730837e-15 
   14       1.173659020968e-10       3.151902662488e-16       1.165137940220e-13       8.761814600325e-18       5.990578785656e-10       5.390689777547e-11      -2.611226126798e-14 
   15       1.186227224736e-10       3.281207417084e-16       1.240131181502e-13       1.001895787552e-17       5.355439158019e-10       4.857810548609e-11      -3.966278264845e-14 
   16       1.199991603054e-10       3.475416258695e-16       1.318056274597e-13       1.136159789757e-17       4.815367972362e-10       4.406595282476e-11      -4.040113797342e-14 
   17       1.215059943897e-10       3.732607456623e-16       1.395403442275e-13       1.279009063088e-17       4.352045531127e-10       4.020053763607e-11      -3.235477535623e-14 
   18       1.231171290049e-10       4.137238434985e-16       1.471601242379e-13       1.430480644008e-17       3.949890107380e-10       3.678985071307e-11      -2.061490023551e-14 
   19       1.248322879695e-10       4.737212509111e-16       1.549411207414e-13       1.590612057198e-17       3.602523892966e-10       3.378129753277e-11      -8.959531356799e-15 
   20       1.266084909581e-10       5.553810952439e-16       1.632577237987e-13       1.759441282884e-17       3.296572041497e-10       3.108909635492e-11      -9.674290890904e-16 
   21       1.284571138739e-10       6.567351312964e-16       1.722131146486e-13       1.937005156343e-17       3.027233378826e-10       2.871347244964e-11       2.378132086612e-15 
   22       1.303739866741e-10       7.741078750142e-16       1.817636650034e-13       2.123339412255e-17       2.788065189652e-10       2.663640400486e-11       1.350630294969e-15 
   23       1.323557118192e-10       9.076790097985e-16       1.917372405155e-13       2.318477176824e-17       2.575782417838e-10       2.479192218748e-11      -2.729532792369e-15 
   24       1.343786491918e-10       1.058517320661e-15       2.018451716940e-13       2.522449002269e-17       2.385481156176e-10       2.308406166728e-11      -7.893536010838e-15 
   25       1.364495345449e-10       1.226219035655e-15       2.117073241004e-13       2.735281570131e-17       2.214923723488e-10       2.152990236976e-11      -1.257270491533e-14 
   26       1.385682352029e-10       1.409923483660e-15       2.208928147634e-13       2.956997690378e-17       2.061023615104e-10       2.015969698344e-11      -1.535401696802e-14 
   27       1.407323883092e-10       1.610180634740e-15       2.291565329740e-13       3.187615442174e-17       1.921939219627e-10       1.893369002324e-11      -1.598630961675e-14 
   28       1.429291793423e-10       1.828152301047e-15       2.363333301520e-13       3.427148211109e-17       1.795278361104e-10       1.778588417139e-11      -1.471593713404e-14 
   29       1.451640878997e-10       2.065659596512e-15       2.424155059675e-13       3.675604936224e-17       1.680395413595e-10       1.671552133643e-11      -1.213549473679e-14 
   30       1.474355486912e-10       2.324959083816e-15       2.474758909607e-13       3.932989286051e-17       1.576056315485e-10       1.573605720796e-11      -9.128505133853e-15 
   31       1.497314047667e-10       2.608286064904e-15       2.516158980674e-13       4.199299957436e-17       1.480132642102e-10       1.485235197446e-11      -6.654715541486e-15 
   32       1.520560517209e-10       2.916546532709e-15       2.548904951452e-13       4.474533435495e-17       1.392131109421e-10       1.405610132547e-11      -5.050789061614e-15 
   33       1.544107677586e-10       3.250120599070e-15       2.573588402610e-13       4.758681633026e-17       1.311432536459e-10       1.332683343096e-11      -4.474196483727e-15 
   34       1.567900825581e-10       3.609328757656e-15       2.590656641837e-13       5.051732285798e-17       1.236910653664e-10       1.263978431872e-11      -4.985275708894e-15 
   35       1.591983931112e-10       3.994939177591e-15       2.599035747021e-13       5.353674036851e-17       1.168183911681e-10       1.199307092677e-11      -6.208569866634e-15 
   36       1.616374200485e-10       4.407826601611e-15       2.597003975732e-13       5.664492721006e-17       1.104699620439e-10       1.138911844495e-11      -7.539115285981e-15 
   37       1.641042799443e-10       4.848835225350e-15       2.582784575356e-13       5.984172350468e-17       1.045630415896e-10       1.082779082780e-11      -8.373098217603e-15 
   38       1.666029750479e-10       5.318776817171e-15       2.555413419324e-13       6.312703791904e-17       9.908244751518e-11       1.030852705135e-11      -8.629622910884e-15 
   39       1.691354930375e-10       5.818426888332e-15       2.514143532085e-13       6.650078848935e-17       9.401094523292e-11       9.828401045301e-12      -8.397745832944e-15 
   40       1.716979489588e-10       6.348521345277e-15       2.458211423062e-13       6.996287953690e-17       8.930035185729e-11       9.381189648984e-12      -7.799820556586e-15 
   41       1.742833563668e-10       6.909746936741e-15       2.387025947721e-13       7.351323013387e-17       8.488834427352e-11       8.959471371825e-12      -6.984602168571e-15 
   42       1.768924961355e-10       7.502716128112e-15       2.300811161070e-13       7.715187033063e-17       8.076195605136e-11       8.562420601345e-12      -6.098128771855e-15 
   43       1.795255562590e-10       8.127978955383e-15       2.200171104583e-13       8.087887647412e-17       7.691020536586e-11       8.190077198890e-12      -5.307374290956e-15 
   44       1.821786821917e-10       8.786025435572e-15       2.085929900477e-13       8.469434761777e-17       7.330503568741e-11       7.841069894433e-12      -4.810424996091e-15 
   45       1.848467973294e-10       9.477323132785e-15       1.958821524526e-13       8.859841699575e-17       6.991133866452e-11       7.513237211284e-12      -4.778224417702e-15 
   46       1.875339637503e-10       1.020245143831e-14       1.818420174666e-13       9.259128559719e-17       6.672379903931e-11       7.205988923707e-12      -5.154963883404e-15 
   47       1.902454737525e-10       1.096200152347e-14       1.663910590641e-13       9.667320219459e-17       6.373875279226e-11       6.918450398924e-12      -5.800958825348e-15 
   48       1.929847290542e-10       1.175653770075e-14       1.494376192471e-13       1.008444574045e-16       6.094307584746e-11       6.648712084707e-12      -6.545772595192e-15 
   49       1.957530457884e-10       1.258659631218e-14       1.308792552645e-13       1.051053863234e-16       5.831348034264e-11       6.393754363713e-12      -7.186491533708e-15 
   50       1.985502705415e-10       1.345263524833e-14       1.106215631501e-13       1.094563467287e-16       5.582353571763e-11       6.150345154919e-12      -7.541349253120e-15 
   51       2.013772780126e-10       1.435486893045e-14       8.864218631805e-14       1.138976405892e-16       5.346861138156e-11       5.918194288324e-12      -7.631761092936e-15 
   52       2.042338142371e-10       1.529338661460e-14       6.494305300570e-14       1.184295758061e-16       5.124648801032e-11       5.697525455717e-12      -7.546719211511e-15 
   53       2.071175916804e-10       1.626819449276e-14       3.953267598636e-14       1.230524902368e-16       4.914989232852e-11       5.488149625192e-12      -7.392620815336e-15 
   54       2.100241323993e-10       1.727921225792e-14       1.242641632134e-14       1.277667531814e-16       4.716615690042e-11       5.289435671825e-12      -7.294147897493e-15 
   55       2.129488119614e-10       1.832635496574e-14      -1.636312792647e-14       1.325727100071e-16       4.528108661552e-11       5.100563525048e-12      -7.363591589093e-15 
   56       2.158939451001e-10       1.940981030276e-14      -4.685835579466e-14       1.374704965091e-16       4.349246232919e-11       4.921424536139e-12      -7.597885987766e-15 
   57       2.188631855736e-10       2.052982418110e-14      -7.909197497970e-14       1.424601810362e-16       4.179929591332e-11       4.751893338656e-12      -7.957536252663e-15 
   58       2.218594100809e-10       2.168662136749e-14      -1.130979467357e-13       1.475418165980e-16       4.019774499636e-11       4.591546965858e-12      -8.395590833539e-15 
   59       2.248846471673e-10       2.288040537166e-14      -1.489116068642e-13       1.527154401362e-16       3.868093665138e-11       4.439646488509e-12      -8.857291778534e-15 
   60       2.279400061294e-10       2.411135833471e-14      -1.865697867037e-13       1.579810717947e-16       3.723879108424e-11       4.295118652703e-12      -9.279725041959e-15 
   61       2.310260650974e-10       2.537954201223e-14      -2.261010042828e-13       1.633386794213e-16       3.586082257708e-11       4.156848166562e-12      -9.605854108133e-15 
   62       2.341442979084e-10       2.668457500480e-14      -2.674931912529e-13       1.687880644086e-16       3.454567586244e-11       4.024672766416e-12      -9.831092920390e-15 
   63       2.372958428090e-10       2.802588255060e-14      -3.107189036500e-13       1.743289488182e-16       3.329342716366e-11       3.898579936360e-12      -9.966613785850e-15 
   64       2.404810161355e-10       2.940278585210e-14      -3.557444222712e-13       1.799610060931e-16       3.210271560017e-11       3.778407631419e-12      -1.002599108856e-14 
   65       2.436992557882e-10       3.081449882622e-14      -4.025295585986e-13       1.856838592247e-16       3.097066134168e-11       3.663835772011e-12      -1.002530796903e-14 
   66       2.469490647068e-10       3.226012485452e-14      -4.510274607223e-13       1.914970789208e-16       2.989278376228e-11       3.554377738419e-12      -9.983263003740e-15 
   67       2.502279543447e-10       3.373865353336e-14      -5.011844192640e-13       1.974001817733e-16       2.886291959471e-11       3.449371865260e-12      -9.921276884682e-15 
   68       2.535334832071e-10       3.524908041405e-14      -5.529509534978e-13       2.033927029038e-16       2.787487012322e-11       3.348163368698e-12      -9.858866677224e-15 
   69       2.568667431772e-10       3.679080166176e-14      -6.063181120278e-13       2.094744350922e-16       2.692791328663e-11       3.250711946874e-12      -9.798441723696e-15 
   70       2.602294813126e-10       3.836329389418e-14      -6.612882127316e-13       2.156452350327e-16       2.602226657284e-11       3.157092581286e-12      -9.737604478455e-15 
   71       2.636230392792e-10       3.996599816467e-14      -7.178643060987e-13       2.219049532136e-16       2.515741985229e-11       3.067312427320e-12      -9.673596249210e-15 
   72       2.670483248325e-10       4.159831985797e-14      -7.760502696506e-13       2.282534339892e-16       2.433209775310e-11       2.981307179121e-12      -9.603282842742e-15 
   73       2.705057832994e-10       4.325962858587e-14      -8.358509023597e-13       2.346905156526e-16       2.354422203616e-11       2.898937434462e-12      -9.523140210624e-15 
   74       2.739953690591e-10       4.494925808293e-14      -8.972720190695e-13       2.412160305079e-16       2.279087397023e-11       2.819985059616e-12      -9.429240094951e-15 
   75       2.775165170255e-10       4.666650610216e-14      -9.603205449138e-13       2.478298049423e-16       2.206825670710e-11       2.744149554229e-12      -9.317235674056e-15 
   76       2.810686098914e-10       4.841057699443e-14      -1.024996260376e-12       2.545317577457e-16       2.137263837780e-11       2.671126366176e-12      -9.183783905967e-15 
   77       2.846525412730e-10       5.018039758870e-14      -1.091265089865e-12       2.613222156058e-16       2.070346309868e-11       2.600866359014e-12      -9.031143729994e-15 
   78       2.882693871245e-10       5.197476739120e-14      -1.159081091096e-12       2.682016555440e-16       2.006074155123e-11       2.533357275206e-12      -8.863394186247e-15 
   79       2.919199172064e-10       5.379241166417e-14      -1.228394296774e-12       2.751706138251e-16       1.944410335787e-11       2.468544060584e-12      -8.685086966922e-15 
   80       2.956045767338e-10       5.563198014625e-14      -1.299150637811e-12       2.822296880449e-16       1.885277956755e-11       2.406326909680e-12      -8.501261522667e-15 
   81       2.993234680233e-10       5.749204577289e-14      -1.371291866527e-12       2.893795392169e-16       1.828558514138e-11       2.346559311037e-12      -8.317460168963e-15 
   82       3.030763321405e-10       5.937110339668e-14      -1.444755479866e-12       2.966208938591e-16       1.774090143816e-11       2.289046092542e-12      -8.139743192491e-15 
   83       3.068625305481e-10       6.126756850777e-14      -1.519474642602e-12       3.039545460814e-16       1.721665870005e-11       2.233541466740e-12      -7.974703957510e-15 
   84       3.106813904850e-10       6.317984491360e-14      -1.595383930833e-12       3.113812829388e-16       1.671083947681e-11       2.179808869622e-12      -7.828092387183e-15 
   85       3.145333470927e-10       6.510654347260e-14      -1.672437824665e-12       3.189016417019e-16       1.622312315404e-11       2.127816156526e-12      -7.700390123372e-15 
   86       3.184189578613e-10       6.704629744438e-14      -1.750595154688e-12       3.265161159863e-16       1.575348320868e-11       2.077569332227e-12      -7.590526108240e-15 
   87       3.223385436733e-10       6.899769663553e-14      -1.829813574982e-12       3.342252296938e-16       1.530168188002e-11       2.029052731966e-12      -7.497194828592e-15 
   88       3.262921765640e-10       7.095928727902e-14      -1.910049584148e-12       3.420295378103e-16       1.486726141056e-11       1.982228105313e-12      -7.418848033588e-15 
   89       3.302796674825e-10       7.292957191352e-14      -1.991258546337e-12       3.499296272025e-16       1.444953528688e-11       1.937033700039e-12      -7.353686452462e-15 
   90       3.343005540522e-10       7.490700926276e-14      -2.073394712278e-12       3.579261174156e-16       1.404757948051e-11       1.893383345978e-12      -7.299651512239e-15 
   91       3.383540883315e-10       7.689001411490e-14      -2.156411240309e-12       3.660196614708e-16       1.366022368881e-11       1.851165538899e-12      -7.254417055451e-15 
   92       3.424392245746e-10       7.887695720192e-14      -2.240260217404e-12       3.742109466621e-16       1.328604257579e-11       1.810242524373e-12      -7.215381057858e-15 
   93       3.465549611158e-10       8.086618321185e-14      -2.324891593018e-12       3.825005861487e-16       1.292369417817e-11       1.770484511280e-12      -7.180097249494e-15 
   94       3.507014514266e-10       8.285606818652e-14      -2.410249751520e-12       3.908887733478e-16       1.257301236899e-11       1.731880188420e-12      -7.147662224692e-15 
   95       3.548790383100e-10       8.484497057362e-14      -2.496276460736e-12       3.993755767946e-16       1.223406327035e-11       1.694441213112e-12      -7.117522611121e-15 
   96       3.590879073863e-10       8.683121398942e-14      -2.582911919225e-12       4.079610440243e-16       1.190680878816e-11       1.658168134482e-12      -7.089051541299e-15 
   97       3.633280797152e-10       8.881308734712e-14      -2.670094762382e-12       4.166452008697e-16       1.159110261853e-11       1.623049959548e-12      -7.061546408795e-15 
   98       3.675994044173e-10       9.078884498504e-14      -2.757762068548e-12       4.254280507604e-16       1.128668625407e-11       1.589063719309e-12      -7.034226624422e-15 
   99       3.719015512956e-10       9.275670679495e-14      -2.845849365110e-12       4.343095740204e-16       1.099318499026e-11       1.556174034829e-12      -7.006231372440e-15 
  100       3.762340034573e-10       9.471485835032e-14      -2.934290634613e-12       4.432897271665e-16       1.071010393179e-11       1.524332683322e-12      -6.976617366749e-15 
  101       3.805960499359e-10       9.666145103456e-14      -3.023018320859e-12       4.523684422071e-16       1.043682399890e-11       1.493478164243e-12      -6.944356607094e-15 
  102       3.849867783122e-10       9.859460216931e-14      -3.111963335016e-12       4.615456259399e-16       1.017259793372e-11       1.463535265371e-12      -6.908334135255e-15 
  103       3.894050673364e-10       1.005123951427e-13      -3.201055061723e-12       4.708211592504e-16       9.916546306649e-12       1.434414628896e-12      -6.867345791252e-15 
  104       3.938498362271e-10       1.024129320131e-13      -3.290222569309e-12       4.801950619548e-16       9.667857016107e-12       1.406033829261e-12      -6.820405156288e-15 
  105       3.983208468131e-10       1.042944991367e-13      -3.379398413487e-12       4.896680141991e-16       9.426423081915e-12       1.378384784016e-12      -6.767716436390e-15 
  106       4.028179964985e-10       1.061554242572e-13      -3.468515361256e-12       4.992409045128e-16       9.192283964288e-12       1.351474682643e-12      -6.709829429890e-15 
  107       4.073410667586e-10       1.079940267243e-13      -3.557505251779e-12       5.089146716585e-16       8.965428027789e-12       1.325305092832e-12      -6.647343216445e-15 
