# Matter power spectrum P(k) at redshift z=0
# for k=1.04766e-05 to 1.4771 h/Mpc,
# number of wavenumbers equal to 611
#    1:k (h/Mpc)              2:P (Mpc/h)^3        
       1.047655867215e-05       4.958778422552e+01 
       2.356532262583e-05       1.086207385488e+02 
       3.670121844005e-05       1.667324517126e+02 
       4.992074056578e-05       2.245124224841e+02 
       6.326100297402e-05       2.823038742961e+02 
       7.676008081180e-05       3.403692831500e+02 
       9.045736327304e-05       3.989367223721e+02 
       1.043939225198e-04       4.582189466688e+02 
       1.186129035248e-04       5.184232851355e+02 
       1.331599397420e-04       5.797577377083e+02 
       1.480835995090e-04       6.424353039662e+02 
       1.634358680079e-04       7.066774347248e+02 
       1.792726693797e-04       7.727170437102e+02 
       1.956544331311e-04       8.408013124566e+02 
       2.126467081574e-04       9.111944189326e+02 
       2.303208263820e-04       9.841802622270e+02 
       2.487546159731e-04       1.060065217167e+03 
       2.680331610676e-04       1.139180921992e+03 
       2.882496005901e-04       1.221887072527e+03 
       3.095059526956e-04       1.308574163402e+03 
       3.319139431327e-04       1.399666077748e+03 
       3.555958049667e-04       1.495622379007e+03 
       3.806850031787e-04       1.596940100538e+03 
       4.073268204728e-04       1.704154760190e+03 
       4.356787203239e-04       1.817840249625e+03 
       4.659103807950e-04       1.938607166741e+03 
       4.982032699120e-04       2.067099083648e+03 
       5.327496140012e-04       2.203986188090e+03 
       5.697505998672e-04       2.349955726026e+03 
       6.094136576124e-04       2.505698737315e+03 
       6.519487023157e-04       2.671892748603e+03 
       6.975632785737e-04       2.849180397418e+03 
       7.464566577653e-04       3.038144422633e+03 
       7.988130820457e-04       3.239280050357e+03 
       8.547945179581e-04       3.452966465733e+03 
       9.145334483117e-04       3.679439672341e+03 
       9.781263538784e-04       3.918769445095e+03 
       1.045628573745e-03       4.170843118923e+03 
       1.117051153702e-03       4.435358513853e+03 
       1.192360091577e-03       4.711827371585e+03 
       1.271478097671e-03       4.999589398401e+03 
       1.354288667733e-03       5.297835625861e+03 
       1.440641986739e-03       5.605638625940e+03 
       1.477104874446e-03       5.734629071518e+03 
       1.530362002502e-03       5.921986426680e+03 
       1.623253955674e-03       6.245816907346e+03 
       1.719111717992e-03       6.576049953273e+03 
       1.817724437429e-03       6.911615492240e+03 
       1.918882171115e-03       7.251476421957e+03 
       2.022380363128e-03       7.594638334861e+03 
       2.128023167592e-03       7.940172338150e+03 
       2.235625716482e-03       8.287237109961e+03 
       2.345015487277e-03       8.635053359792e+03 
       2.456032946146e-03       8.982916328886e+03 
       2.568531638490e-03       9.330193895457e+03 
       2.682377880243e-03       9.676323132788e+03 
       2.797450178326e-03       1.002080590038e+04 
       2.913638482351e-03       1.036320386432e+04 
       3.030843345209e-03       1.070313323742e+04 
       3.148975049269e-03       1.104025949146e+04 
       3.267952737793e-03       1.137429228021e+04 
       3.387703577928e-03       1.170498068271e+04 
       3.508161971594e-03       1.203210889626e+04 
       3.629268823331e-03       1.235549228253e+04 
       3.750970868995e-03       1.267497380310e+04 
       3.873220065714e-03       1.299042083350e+04 
       3.995973041232e-03       1.330172234492e+04 
       4.119190599356e-03       1.360878641929e+04 
       4.242837277462e-03       1.391153803460e+04 
       4.366880951661e-03       1.420991710604e+04 
       4.491292485182e-03       1.450387664881e+04 
       4.616045415637e-03       1.479338122521e+04 
       4.741115677100e-03       1.507840552448e+04 
       4.866481353198e-03       1.535893332325e+04 
       4.992122457771e-03       1.563495582057e+04 
       5.118020739968e-03       1.590647092451e+04 
       5.244159510972e-03       1.617348239711e+04 
       5.370523489858e-03       1.643599721982e+04 
       5.497098666360e-03       1.669402949142e+04 
       5.623872178570e-03       1.694759765535e+04 
       5.750832203851e-03       1.719672244614e+04 
       5.877967861414e-03       1.744142765167e+04 
       6.005269125219e-03       1.768173979544e+04 
       6.132726746011e-03       1.791768776115e+04 
       6.260332181453e-03       1.814930253592e+04 
       6.388077533427e-03       1.837661695784e+04 
       6.515955491703e-03       1.859966545680e+04 
       6.643959283264e-03       1.881848383463e+04 
       6.772082626660e-03       1.903310905556e+04 
       6.900319690839e-03       1.924357904656e+04 
       7.028665057973e-03       1.944993253797e+04 
       7.157113689839e-03       1.965220890935e+04 
       7.285660897390e-03       1.985044806490e+04 
       7.414302313170e-03       2.004469033685e+04 
       7.543033866285e-03       2.023497638822e+04 
       7.671851759651e-03       2.042134715311e+04 
       7.800752449312e-03       2.060384377297e+04 
       7.929732625589e-03       2.078250753875e+04 
       8.058789195905e-03       2.095737984776e+04 
       8.187919269103e-03       2.112850213832e+04 
       8.317120141114e-03       2.129591584066e+04 
       8.446389281855e-03       2.145966231297e+04 
       8.575724323223e-03       2.161978277184e+04 
       8.705123048100e-03       2.177631823619e+04 
       8.834583380254e-03       2.192930945097e+04 
       8.964103375077e-03       2.207879683940e+04 
       9.093681211065e-03       2.222482044602e+04 
       9.223315181973e-03       2.236741989910e+04 
       9.353003689607e-03       2.250663439052e+04 
       9.482745237168e-03       2.264250266034e+04 
       9.612538423114e-03       2.277506300735e+04 
       9.742381935502e-03       2.290435332385e+04 
       9.872274546757e-03       2.303041109554e+04 
       1.000221510883e-02       2.315327344538e+04 
       1.013220254873e-02       2.327297716840e+04 
       1.026223586439e-02       2.338955874815e+04 
       1.039231412082e-02       2.350305438410e+04 
       1.052243644654e-02       2.361349999673e+04 
       1.065260203034e-02       2.372093123249e+04 
       1.078281011814e-02       2.382538345085e+04 
       1.091306001024e-02       2.392689170915e+04 
       1.104335105860e-02       2.402549073826e+04 
       1.117368266448e-02       2.412121491944e+04 
       1.130405427608e-02       2.421409826205e+04 
       1.143446538649e-02       2.430417438900e+04 
       1.156491553171e-02       2.439147653116e+04 
       1.169540428879e-02       2.447603753365e+04 
       1.182593127419e-02       2.455788987324e+04 
       1.195649614214e-02       2.463706568992e+04 
       1.208709858322e-02       2.471359681598e+04 
       1.221773832296e-02       2.478751481517e+04 
       1.234841512060e-02       2.485885101846e+04 
       1.247912876788e-02       2.492763655420e+04 
       1.260987908799e-02       2.499390236516e+04 
       1.274066593447e-02       2.505767922988e+04 
       1.287148919038e-02       2.511899777211e+04 
       1.300234876732e-02       2.517788845105e+04 
       1.313324460467e-02       2.523438155323e+04 
       1.326417666886e-02       2.528850705095e+04 
       1.339514495261e-02       2.534029422954e+04 
       1.352614947437e-02       2.538977124733e+04 
       1.365719027766e-02       2.543696546041e+04 
       1.378826743056e-02       2.548190298671e+04 
       1.391938102525e-02       2.552461265444e+04 
       1.405053117747e-02       2.556512174821e+04 
       1.418171802619e-02       2.560345805118e+04 
       1.431294173319e-02       2.563964901100e+04 
       1.444420248272e-02       2.567372172730e+04 
       1.457550048121e-02       2.570570299761e+04 
       1.470683595702e-02       2.573561933557e+04 
       1.477104874446e-02       2.574949951460e+04 
       1.483820916013e-02       2.576349700577e+04 
       1.496962036200e-02       2.578936203804e+04 
       1.510106985535e-02       2.581324023567e+04 
       1.523255795403e-02       2.583515718419e+04 
       1.536408499286e-02       2.585513825503e+04 
       1.549565132756e-02       2.587320861026e+04 
       1.562725733463e-02       2.588939320604e+04 
       1.575890341135e-02       2.590371679378e+04 
       1.589058997569e-02       2.591620392521e+04 
       1.602231746635e-02       2.592687895092e+04 
       1.615408634274e-02       2.593576602470e+04 
       1.628589708499e-02       2.594288910388e+04 
       1.641775019407e-02       2.594827195062e+04 
       1.654964619180e-02       2.595193813311e+04 
       1.668158562096e-02       2.595391102691e+04 
       1.681356904539e-02       2.595421381597e+04 
       1.694559705014e-02       2.595286949442e+04 
       1.707767024159e-02       2.594990086835e+04 
       1.720978924764e-02       2.594533055759e+04 
       1.734195471784e-02       2.593918099841e+04 
       1.747416732365e-02       2.593147444628e+04 
       1.760642775862e-02       2.592223297876e+04 
       1.773873673862e-02       2.591147849736e+04 
       1.787109500210e-02       2.589923273339e+04 
       1.800350331035e-02       2.588551724914e+04 
       1.813596244779e-02       2.587035344140e+04 
       1.826847322225e-02       2.585376254512e+04 
       1.840103646530e-02       2.583576563460e+04 
       1.853365303260e-02       2.581638362755e+04 
       1.866632380421e-02       2.579563728544e+04 
       1.879904968496e-02       2.577354721574e+04 
       1.893183160489e-02       2.575013387295e+04 
       1.906467051956e-02       2.572541755866e+04 
       1.919756741055e-02       2.569941842234e+04 
       1.933052328586e-02       2.567215646103e+04 
       1.946353918032e-02       2.564365151980e+04 
       1.959661615615e-02       2.561392329050e+04 
       1.972975530338e-02       2.558299131130e+04 
       1.986295774036e-02       2.555087496737e+04 
       1.999622461434e-02       2.551759348877e+04 
       2.012955710193e-02       2.548316595143e+04 
       2.026295640975e-02       2.544761127744e+04 
       2.039642377495e-02       2.541094823299e+04 
       2.052996046584e-02       2.537319543127e+04 
       2.066356778250e-02       2.533437133147e+04 
       2.079724705746e-02       2.529449423879e+04 
       2.093099965632e-02       2.525358230653e+04 
       2.106482697846e-02       2.521165353593e+04 
       2.119873045776e-02       2.516872577666e+04 
       2.133271156331e-02       2.512481672881e+04 
       2.146677180019e-02       2.507994394340e+04 
       2.160091271023e-02       2.503412482180e+04 
       2.173513587285e-02       2.498737661760e+04 
       2.186944290585e-02       2.493971643766e+04 
       2.200383546628e-02       2.489116124076e+04 
       2.213831525137e-02       2.484172784014e+04 
       2.227288399936e-02       2.479143290249e+04 
       2.240754349052e-02       2.474029294779e+04 
       2.254229554808e-02       2.468832435068e+04 
       2.267714203922e-02       2.463554333979e+04 
       2.281208487614e-02       2.458196599743e+04 
       2.294712601710e-02       2.452760825918e+04 
       2.308226746753e-02       2.447248591526e+04 
       2.321751128113e-02       2.441661460991e+04 
       2.335285956109e-02       2.436000983924e+04 
       2.348831446126e-02       2.430268695290e+04 
       2.362387818737e-02       2.424466115415e+04 
       2.375955299838e-02       2.418594749751e+04 
       2.389534120772e-02       2.412656089085e+04 
       2.403124518472e-02       2.406651609259e+04 
       2.416726735597e-02       2.400582771224e+04 
       2.430341020678e-02       2.394451021248e+04 
       2.443967628272e-02       2.388257790511e+04 
       2.457606819108e-02       2.382004495239e+04 
       2.471258860255e-02       2.375692536710e+04 
       2.484924025282e-02       2.369323301266e+04 
       2.498602594427e-02       2.362898160165e+04 
       2.512294854775e-02       2.356418469749e+04 
       2.526001100439e-02       2.349885571218e+04 
       2.539721632746e-02       2.343300790884e+04 
       2.553456760430e-02       2.336665440169e+04 
       2.567206799832e-02       2.329980815473e+04 
       2.580972075108e-02       2.323248198300e+04 
       2.594752918439e-02       2.316468855351e+04 
       2.608549670254e-02       2.309644038498e+04 
       2.622362679458e-02       2.302774984786e+04 
       2.636192303666e-02       2.295862916331e+04 
       2.650038909445e-02       2.288909040702e+04 
       2.663902872573e-02       2.281914550527e+04 
       2.677784578292e-02       2.274880623605e+04 
       2.691684421583e-02       2.267808423007e+04 
       2.705602807442e-02       2.260699096881e+04 
       2.719540151175e-02       2.253553778369e+04 
       2.733496878690e-02       2.246373585619e+04 
       2.747473426813e-02       2.239159621866e+04 
       2.761470243606e-02       2.231912975153e+04 
       2.775487788705e-02       2.224634718246e+04 
       2.789526533661e-02       2.217325908841e+04 
       2.803586962297e-02       2.209987589338e+04 
       2.817669571086e-02       2.202620786787e+04 
       2.831774869529e-02       2.195226512966e+04 
       2.845903380560e-02       2.187805764276e+04 
       2.860055640958e-02       2.180359521861e+04 
       2.874232201778e-02       2.172888751501e+04 
       2.888433628799e-02       2.165394403573e+04 
       2.902660502990e-02       2.157877413330e+04 
       2.916913420988e-02       2.150338700652e+04 
       2.931192995607e-02       2.142779170102e+04 
       2.945499856353e-02       2.135199711076e+04 
       2.959834649969e-02       2.127601197704e+04 
       2.974198041000e-02       2.119984488802e+04 
       2.988590712379e-02       2.112350427967e+04 
       3.003013366042e-02       2.104699843516e+04 
       3.017466723557e-02       2.097033548472e+04 
       3.031951526794e-02       2.089352340426e+04 
       3.046468538613e-02       2.081657001589e+04 
       3.061018543584e-02       2.073948298929e+04 
       3.075602348740e-02       2.066226983728e+04 
       3.090220784354e-02       2.058493791836e+04 
       3.104874704764e-02       2.050749443595e+04 
       3.119564989222e-02       2.042994643759e+04 
       3.134292542783e-02       2.035230081503e+04 
       3.149058297239e-02       2.027456430239e+04 
       3.163863212087e-02       2.019674347973e+04 
       3.178708275549e-02       2.011884476801e+04 
       3.193594505633e-02       2.004087443315e+04 
       3.208522951244e-02       1.996283858321e+04 
       3.223494693350e-02       1.988474316936e+04 
       3.238510846198e-02       1.980659398530e+04 
       3.253572558593e-02       1.972839666671e+04 
       3.268681015233e-02       1.965015669204e+04 
       3.283837438116e-02       1.957187938102e+04 
       3.299043088004e-02       1.949356989329e+04 
       3.314299265975e-02       1.941523323013e+04 
       3.329607315037e-02       1.933687423155e+04 
       3.344968621836e-02       1.925849757806e+04 
       3.360384618440e-02       1.918010778641e+04 
       3.375856784226e-02       1.910170921061e+04 
       3.391386647853e-02       1.902330604124e+04 
       3.406975789351e-02       1.894490230402e+04 
       3.422625842308e-02       1.886650185754e+04 
       3.438338496186e-02       1.878810839293e+04 
       3.454115498755e-02       1.870972543293e+04 
       3.469958658661e-02       1.863135632860e+04 
       3.485869848143e-02       1.855300426046e+04 
       3.501851005888e-02       1.847467223476e+04 
       3.517904140065e-02       1.839636308139e+04 
       3.534031331518e-02       1.831807945559e+04 
       3.550234737154e-02       1.823982383120e+04 
       3.566516593521e-02       1.816159850290e+04 
       3.582879220603e-02       1.808340558081e+04 
       3.599325025843e-02       1.800524699183e+04 
       3.615856508406e-02       1.792712447529e+04 
       3.632476263709e-02       1.784903957747e+04 
       3.649186988222e-02       1.777099365758e+04 
       3.665991484584e-02       1.769298787593e+04 
       3.682892667036e-02       1.761502319791e+04 
       3.699893567205e-02       1.753710038640e+04 
       3.716997340266e-02       1.745921999968e+04 
       3.734207271513e-02       1.738138238952e+04 
       3.751526783366e-02       1.730358769550e+04 
       3.768959442857e-02       1.722583583807e+04 
       3.786508969626e-02       1.714812651908e+04 
       3.804179244480e-02       1.707045921344e+04 
       3.821974318547e-02       1.699283316068e+04 
       3.839898423091e-02       1.691524736417e+04 
       3.857955980039e-02       1.683770057900e+04 
       3.876151613283e-02       1.676019131026e+04 
       3.894490160815e-02       1.668271779819e+04 
       3.912976687796e-02       1.660527801637e+04 
       3.931616500620e-02       1.652786965677e+04 
       3.950415162071e-02       1.645049012562e+04 
       3.969378507687e-02       1.637313652846e+04 
       3.988512663433e-02       1.629580566403e+04 
       4.007824064818e-02       1.621849400857e+04 
       4.027319477594e-02       1.614119770403e+04 
       4.047006020199e-02       1.606391254558e+04 
       4.066891188119e-02       1.598663396728e+04 
       4.086982880368e-02       1.590935702485e+04 
       4.107289428307e-02       1.583207637729e+04 
       4.127819627059e-02       1.575478627345e+04 
       4.148582769788e-02       1.567748052507e+04 
       4.169588685172e-02       1.560015248750e+04 
       4.190847778426e-02       1.552279503346e+04 
       4.212371076275e-02       1.544540052837e+04 
       4.234170276341e-02       1.536796079749e+04 
       4.256257801473e-02       1.529046709134e+04 
       4.278646859605e-02       1.521291005433e+04 
       4.301351509833e-02       1.513527968067e+04 
       4.324386735489e-02       1.505756527076e+04 
       4.347768525103e-02       1.497975538047e+04 
       4.371513962286e-02       1.490183776998e+04 
       4.395641325714e-02       1.482379934319e+04 
       4.420170200605e-02       1.474562607989e+04 
       4.445121603248e-02       1.466730296243e+04 
       4.470518120469e-02       1.458881389467e+04 
       4.496384066167e-02       1.451014160827e+04 
       4.522745657459e-02       1.443126755745e+04 
       4.549631213393e-02       1.435217180352e+04 
       4.577071379706e-02       1.427283287814e+04 
       4.605099383774e-02       1.419322762935e+04 
       4.633751324604e-02       1.411333104764e+04 
       4.663066503707e-02       1.403311606209e+04 
       4.693087803770e-02       1.395255330795e+04 
       4.723862123445e-02       1.387161085753e+04 
       4.755440878265e-02       1.379025390622e+04 
       4.787880579765e-02       1.370844440674e+04 
       4.821243507466e-02       1.362614063930e+04 
       4.855598491586e-02       1.354329670094e+04 
       4.891021828321e-02       1.345986190139e+04 
       4.927598354542e-02       1.337578003452e+04 
       4.965422715034e-02       1.329098850316e+04 
       5.004600863345e-02       1.320541725272e+04 
       5.045251847342e-02       1.311898746262e+04 
       5.087509943361e-02       1.303160993252e+04 
       5.131527219065e-02       1.294318306037e+04 
       5.177476625879e-02       1.285359030697e+04 
       5.225555748231e-02       1.276269696427e+04 
       5.275991370421e-02       1.267034602137e+04 
       5.329045064263e-02       1.257635280282e+04 
       5.385020053486e-02       1.248049794671e+04 
       5.444269675319e-02       1.238251808955e+04 
       5.507207835333e-02       1.228209336850e+04 
       5.574321933945e-02       1.217883050785e+04 
       5.646188818748e-02       1.207223965059e+04 
       5.723494354166e-02       1.196170232393e+04 
       5.807057130543e-02       1.184642680733e+04 
       5.897856519646e-02       1.172538570506e+04 
       5.997064456029e-02       1.159722877545e+04 
       6.106078499642e-02       1.146016225217e+04 
