# dimensionless total [l(l+1)/2pi] C_l's
# for l=2 to 3100, i.e. number of multipoles equal to 3099
#
# -> if you prefer output in CAMB/HealPix/LensPix units/order, set 'format' to 'camb' in input file
# -> if you don't want to see such a header, set 'headers' to 'no' in input file
# -> for CMB lensing (phi), these are C_l^phi-phi for the lensing potential.
#    Remember the conversion factors:
#    C_l^dd (deflection) = l(l+1) C_l^phi-phi
#    C_l^gg (shear/convergence) = 1/4 (l(l+1))^2 C_l^phi-phi
#
# 1:l     2:TT                     3:EE                     4:TE                     5:BB                     6:phiphi                 7:TPhi                   8:Ephi               
    2       1.438908023618e-10       4.629049988147e-15       3.791182900523e-13       0.000000000000e+00       8.602740290406e-09       4.697594833162e-10      -1.989207503848e-12 
    3       1.362407027811e-10       6.283301297781e-15       4.345226167232e-13       0.000000000000e+00       5.318733846738e-09       3.342810068269e-10      -1.560517625679e-12 
    4       1.289021580288e-10       5.778370013759e-15       4.137551581303e-13       0.000000000000e+00       3.708589791183e-09       2.534793645541e-10      -1.071496519420e-12 
    5       1.233661307102e-10       4.103146291237e-15       3.578828298082e-13       0.000000000000e+00       2.771549640214e-09       2.003567479923e-10      -6.421761037153e-13 
    6       1.195036274243e-10       2.403920894304e-15       2.915189792301e-13       0.000000000000e+00       2.166270025978e-09       1.630463727336e-10      -3.088886922576e-13 
    7       1.169640686492e-10       1.284178740926e-15       2.296144933293e-13       0.000000000000e+00       1.747429711249e-09       1.356535466833e-10      -7.970689079351e-14 
    8       1.154770996892e-10       7.606991553712e-16       1.793647050354e-13       0.000000000000e+00       1.443114003262e-09       1.148899266342e-10       5.389985836938e-14 
    9       1.147275068866e-10       5.773333436588e-16       1.432872044760e-13       0.000000000000e+00       1.214262449161e-09       9.873834514312e-11       1.101096741080e-13 
   10       1.145427578145e-10       4.984395055863e-16       1.208901146876e-13       0.000000000000e+00       1.037621599008e-09       8.590801011516e-11       1.116868711382e-13 
   11       1.148088649520e-10       4.237398497531e-16       1.098944906578e-13       0.000000000000e+00       8.756555789222e-10       7.590158441429e-11       8.192474159438e-14 
   12       1.154229262886e-10       3.540367840113e-16       1.073421731509e-13       0.000000000000e+00       7.652023005196e-10       6.714501251092e-11       4.021608603204e-14 
   13       1.162729923479e-10       3.136000386115e-16       1.103450949636e-13       0.000000000000e+00       6.745120686091e-10       5.997406278142e-11       1.420792727547e-15 
   14       1.173484092227e-10       3.063553109439e-16       1.164993190534e-13       0.000000000000e+00       5.990590691258e-10       5.390691381166e-11      -2.611107597177e-14 
   15       1.186029306282e-10       3.180116442663e-16       1.239981159871e-13       0.000000000000e+00       5.355450288726e-10       4.857820114554e-11      -3.966151996061e-14 
   16       1.199769398394e-10       3.360679178826e-16       1.317903755234e-13       0.000000000000e+00       4.815378427178e-10       4.406599745445e-11      -4.039984374563e-14 
   17       1.214812553487e-10       3.603314846964e-16       1.395251888962e-13       0.000000000000e+00       4.352055363441e-10       4.020050314091e-11      -3.235346193587e-14 
   18       1.230897550490e-10       3.992471465544e-16       1.471455841865e-13       0.000000000000e+00       3.949899755113e-10       3.678979592275e-11      -2.061358912780e-14 
   19       1.248021654882e-10       4.576045356167e-16       1.549276869680e-13       0.000000000000e+00       3.602532683459e-10       3.378128980270e-11      -8.958264426977e-15 
   20       1.265755265075e-10       5.375312884698e-16       1.632457904327e-13       0.000000000000e+00       3.296580257290e-10       3.108918272503e-11      -9.662609532478e-16 
   21       1.284212182016e-10       6.370586022982e-16       1.722031649089e-13       0.000000000000e+00       3.027241295436e-10       2.871365347586e-11       2.379169058947e-15 
   22       1.303350677785e-10       7.525105007769e-16       1.817563270542e-13       0.000000000000e+00       2.788072757778e-10       2.663662557847e-11       1.351542431502e-15 
   23       1.323136721630e-10       8.840663382245e-16       1.917331642127e-13       0.000000000000e+00       2.575789589650e-10       2.479212673013e-11      -2.728709119237e-15 
   24       1.343333856334e-10       1.032794713701e-15       2.018449849750e-13       0.000000000000e+00       2.385487982247e-10       2.308421222213e-11      -7.892739648995e-15 
   25       1.364009493768e-10       1.198291736188e-15       2.117116657949e-13       0.000000000000e+00       2.214930253992e-10       2.153000032964e-11      -1.257187617529e-14 
   26       1.385162388587e-10       1.379696711703e-15       2.209023554039e-13       0.000000000000e+00       2.061029867079e-10       2.015978188621e-11      -1.535310883663e-14 
   27       1.406768905016e-10       1.577559600971e-15       2.291720346720e-13       0.000000000000e+00       1.921945205996e-10       1.893378041849e-11      -1.598528603218e-14 
   28       1.428700867592e-10       1.793042293452e-15       2.363556571172e-13       0.000000000000e+00       1.795284097736e-10       1.778596169494e-11      -1.471477668803e-14 
   29       1.451013094593e-10       2.027966097380e-15       2.424455422101e-13       0.000000000000e+00       1.680400917586e-10       1.671556870555e-11      -1.213419859643e-14 
   30       1.473689976762e-10       2.284587899592e-15       2.475145049390e-13       0.000000000000e+00       1.576061602576e-10       1.573607257197e-11      -9.127104492750e-15 
   31       1.496609988982e-10       2.565143429182e-15       2.516639343670e-13       0.000000000000e+00       1.480137724867e-10       1.485234931748e-11      -6.653268220820e-15 
   32       1.519817104480e-10       2.870539086596e-15       2.549487940893e-13       0.000000000000e+00       1.392135999779e-10       1.405609593769e-11      -5.049338015009e-15 
   33       1.543324113110e-10       3.201155456893e-15       2.574282391171e-13       0.000000000000e+00       1.311437245099e-10       1.332683668599e-11      -4.472751377772e-15 
   34       1.567076321846e-10       3.557313553602e-15       2.591470005987e-13       0.000000000000e+00       1.236915189062e-10       1.263980201979e-11      -4.983812850338e-15 
   35       1.591117729621e-10       3.939781921383e-15       2.599977241602e-13       0.000000000000e+00       1.168188282289e-10       1.199310108061e-11      -6.207064114420e-15 
   36       1.615465580374e-10       4.349435658550e-15       2.598082893645e-13       0.000000000000e+00       1.104703834601e-10       1.138914918214e-11      -7.537551141917e-15 
   37       1.640091078922e-10       4.787119318003e-15       2.584010681975e-13       0.000000000000e+00       1.045634481230e-10       1.082780212899e-11      -8.371471088673e-15 
   38       1.665034277135e-10       5.253644933003e-15       2.556796400251e-13       0.000000000000e+00       9.908283993404e-11       1.030850548603e-11      -8.627934817793e-15 
   39       1.690315079300e-10       5.749788245663e-15       2.515692763836e-13       0.000000000000e+00       9.401132428279e-11       9.828345922120e-12      -8.396005045389e-15 
   40       1.715894664645e-10       6.276285379882e-15       2.459935866489e-13       0.000000000000e+00       8.930071818626e-11       9.381115919269e-12      -7.798042810821e-15 
   41       1.741703199754e-10       6.833823272907e-15       2.388934075416e-13       0.000000000000e+00       8.488869839985e-11       8.959407808199e-12      -6.982809155015e-15 
   42       1.767748529736e-10       7.423014505537e-15       2.302911014227e-13       0.000000000000e+00       8.076229849204e-11       8.562391510554e-12      -6.096337187718e-15 
   43       1.794032574367e-10       8.044409179852e-15       2.202470252583e-13       0.000000000000e+00       7.691053664521e-11       8.190095549224e-12      -5.305591379852e-15 
   44       1.820516830890e-10       8.698497336060e-15       2.088435361098e-13       0.000000000000e+00       7.330535629749e-11       7.841134737891e-12      -4.808646508632e-15 
   45       1.847150573768e-10       9.385746582445e-15       1.961539710440e-13       0.000000000000e+00       6.991164904530e-11       7.513334277520e-12      -4.776435481332e-15 
   46       1.873974444712e-10       1.010673660024e-14       1.821356935642e-13       0.000000000000e+00       6.672409963332e-11       7.206102222525e-12      -5.153149917723e-15 
   47       1.901041380552e-10       1.086205893147e-14       1.667071183257e-13       0.000000000000e+00       6.373904404121e-11       6.918565843680e-12      -5.799109212627e-15 
   48       1.928385409900e-10       1.165227827712e-14       1.497765221410e-13       0.000000000000e+00       6.094335816565e-11       6.648818112552e-12      -6.543881637193e-15 
   49       1.956019702984e-10       1.247793138513e-14       1.312413910513e-13       0.000000000000e+00       5.831375408836e-11       6.393842593536e-12      -7.184559463847e-15 
   50       1.983942733277e-10       1.333947675049e-14       1.110072417834e-13       0.000000000000e+00       5.582380118497e-11       6.150410635021e-12      -7.539381956674e-15 
   51       2.012163258510e-10       1.423713019957e-14       8.905162377817e-14       0.000000000000e+00       5.346886886494e-11       5.918234294554e-12      -7.629765409577e-15 
   52       2.040678749481e-10       1.517098275479e-14       6.537636116269e-14       0.000000000000e+00       5.124673781255e-11       5.697539410846e-12      -7.544701552034e-15 
   53       2.069466339674e-10       1.614104257625e-14       3.998985400736e-14       0.000000000000e+00       4.915013474702e-11       5.488139448093e-12      -7.390587013021e-15 
   54       2.098481256817e-10       1.714723153499e-14       1.290734183943e-14       0.000000000000e+00       4.716639221247e-11       5.289406143263e-12      -7.292103051390e-15 
   55       2.127677263810e-10       1.818946712780e-14      -1.585870355731e-14       0.000000000000e+00       4.528131507263e-11       5.100521927906e-12      -7.361539976010e-15 
   56       2.157077521101e-10       1.926793990188e-14      -4.633079825033e-14       0.000000000000e+00       4.349268418386e-11       4.921377869802e-12      -7.595831218795e-15 
   57       2.186718580797e-10       2.038289894613e-14      -7.854176865268e-14       0.000000000000e+00       4.179951141972e-11       4.751847385712e-12      -7.955481231793e-15 
   58       2.216629224179e-10       2.153457248815e-14      -1.125257005107e-13       0.000000000000e+00       4.019795440097e-11       4.591506036151e-12      -8.393537639870e-15 
   59       2.246829750769e-10       2.272316779243e-14      -1.483180599638e-13       0.000000000000e+00       3.868114018308e-11       4.439613150900e-12      -8.855241543419e-15 
   60       2.277331267396e-10       2.394887105857e-14      -1.859558146047e-13       0.000000000000e+00       3.723898894370e-11       4.295093454522e-12      -9.277677821073e-15 
   61       2.308139572830e-10       2.521174820092e-14      -2.254676223223e-13       0.000000000000e+00       3.586101493547e-11       4.156829779708e-12      -9.603808978792e-15 
   62       2.339269438942e-10       2.651142139272e-14      -2.668415505406e-13       0.000000000000e+00       3.454586289134e-11       4.024659553093e-12      -9.829048825195e-15 
   63       2.370732288130e-10       2.784731940782e-14      -3.100502930643e-13       0.000000000000e+00       3.329360903969e-11       3.898570393457e-12      -9.964569789287e-15 
   64       2.402531326697e-10       2.921876715007e-14      -3.550602726776e-13       0.000000000000e+00       3.210289250018e-11       3.778400425656e-12      -1.002394642025e-14 
   65       2.434660979731e-10       3.062498240661e-14      -4.018314470624e-13       0.000000000000e+00       3.097083343763e-11       3.663829776727e-12      -1.002326206922e-14 
   66       2.467106325990e-10       3.206507260113e-14      -4.503171147166e-13       0.000000000000e+00       2.989295121587e-11       3.554372071978e-12      -9.981215571006e-15 
   67       2.499842532780e-10       3.353803154709e-14      -5.004637208723e-13       0.000000000000e+00       2.886308255165e-11       3.449365931091e-12      -9.919227925912e-15 
   68       2.532845239936e-10       3.504285867652e-14      -5.522219431402e-13       0.000000000000e+00       2.787502871282e-11       3.348156842390e-12      -9.856816524181e-15 
   69       2.566125418235e-10       3.657895203786e-14      -6.055829906617e-13       0.000000000000e+00       2.692806763905e-11       3.250704588351e-12      -9.796390936628e-15 
   70       2.599700591467e-10       3.814578946308e-14      -6.605493452580e-13       0.000000000000e+00       2.602241682175e-11       3.157084189224e-12      -9.735553843693e-15 
   71       2.633584232309e-10       3.974281302557e-14      -7.171242251947e-13       0.000000000000e+00       2.515756613212e-11       3.067302845220e-12      -9.671546811655e-15 
   72       2.667785477242e-10       4.136942892580e-14      -7.753116795840e-13       0.000000000000e+00       2.433224019616e-11       2.981296301622e-12      -9.601235939673e-15 
   73       2.702308841455e-10       4.302500737684e-14      -8.351166827872e-13       0.000000000000e+00       2.354436076961e-11       2.898925213882e-12      -9.521097506841e-15 
   74       2.737153933759e-10       4.470888249006e-14      -8.965452288167e-13       0.000000000000e+00       2.279100911291e-11       2.819971512730e-12      -9.427203619230e-15 
   75       2.772315171498e-10       4.642035216070e-14      -9.596044257383e-13       0.000000000000e+00       2.206838836617e-11       2.744134769272e-12      -9.315207856938e-15 
   76       2.807786446849e-10       4.815862076034e-14      -1.024294239790e-12       0.000000000000e+00       2.137276664882e-11       2.671110500470e-12      -9.181767525346e-15 
   77       2.843576738319e-10       4.992261540241e-14      -1.090580780981e-12       0.000000000000e+00       2.070358807696e-11       2.600849605949e-12      -9.029141557780e-15 
   78       2.879696841357e-10       5.171113580831e-14      -1.158418294869e-12       0.000000000000e+00       2.006086333366e-11       2.533339856670e-12      -8.861408881601e-15 
   79       2.916154488927e-10       5.352290726188e-14      -1.227757005091e-12       0.000000000000e+00       1.944422204135e-11       2.468526228557e-12      -8.683121057585e-15 
   80       2.952954167949e-10       5.535657932224e-14      -1.298543036533e-12       0.000000000000e+00       1.885289524733e-11       2.406308947849e-12      -8.499317385707e-15 
   81       2.990096935742e-10       5.721072453655e-14      -1.370718338507e-12       0.000000000000e+00       1.828569790933e-11       2.346541536465e-12      -8.315540010918e-15 
   82       3.027580236466e-10       5.908383715290e-14      -1.444220607921e-12       0.000000000000e+00       1.774101138097e-11       2.289028857356e-12      -8.137849028929e-15 
   83       3.065397717565e-10       6.097433183311e-14      -1.518983212453e-12       0.000000000000e+00       1.721676589732e-11       2.233525159863e-12      -7.972837591990e-15 
   84       3.103542683974e-10       6.288061195275e-14      -1.594940929042e-12       0.000000000000e+00       1.671094400120e-11       2.179793902798e-12      -7.826255366832e-15 
   85       3.142019520750e-10       6.480129033033e-14      -1.672048420693e-12       0.000000000000e+00       1.622322507798e-11       2.127802900149e-12      -7.698583621156e-15 
   86       3.180833836334e-10       6.673500290054e-14      -1.750264696117e-12       0.000000000000e+00       1.575358260548e-11       2.077558093073e-12      -7.588750865248e-15 
   87       3.219988872537e-10       6.868034226453e-14      -1.829547587358e-12       0.000000000000e+00       1.530177882292e-11       2.029043745697e-12      -7.495451117064e-15 
   88       3.259485382119e-10       7.063585757229e-14      -1.909853770699e-12       0.000000000000e+00       1.486735597174e-11       1.982221528754e-12      -7.417135618970e-15 
   89       3.299321506376e-10       7.260005440501e-14      -1.991138787573e-12       0.000000000000e+00       1.444962753646e-11       1.937029603224e-12      -7.352004554486e-15 
   90       3.339492652717e-10       7.457139465742e-14      -2.073357065473e-12       0.000000000000e+00       1.404766948543e-11       1.893381703972e-12      -7.297998765027e-15 
   91       3.379991372246e-10       7.654829642017e-14      -2.156461938861e-12       0.000000000000e+00       1.366031151176e-11       1.851166223383e-12      -7.252791466640e-15 
   92       3.420807237345e-10       7.852913386214e-14      -2.240405670074e-12       0.000000000000e+00       1.328612827405e-11       1.810245295006e-12      -7.213779966752e-15 
   93       3.461930267202e-10       8.051225453651e-14      -2.325138377341e-12       0.000000000000e+00       1.292377780392e-11       1.770489028335e-12      -7.178517454191e-15 
   94       3.503362059632e-10       8.249603453165e-14      -2.410604588960e-12       0.000000000000e+00       1.257309397437e-11       1.731886093395e-12      -7.146100647321e-15 
   95       3.545106114931e-10       8.447883143598e-14      -2.496746207112e-12       0.000000000000e+00       1.223414290843e-11       1.694448151217e-12      -7.115976504476e-15 
   96       3.587164364382e-10       8.645896777329e-14      -2.583503560416e-12       0.000000000000e+00       1.190688651244e-11       1.658175756594e-12      -7.087518534065e-15 
   97       3.629537096533e-10       8.843473112429e-14      -2.670815409831e-12       0.000000000000e+00       1.159117848238e-11       1.623057924230e-12      -7.060024552138e-15 
   98       3.672222883486e-10       9.040437424810e-14      -2.758618954568e-12       0.000000000000e+00       1.128676031021e-11       1.589071694899e-12      -7.032714439930e-15 
   99       3.715218507176e-10       9.236611520380e-14      -2.846849837992e-12       0.000000000000e+00       1.099325729019e-11       1.556181701592e-12      -7.004727901424e-15 
  100       3.758518885657e-10       9.431813747194e-14      -2.935442153535e-12       0.000000000000e+00       1.071017452520e-11       1.524339735672e-12      -6.975122220902e-15 
  101       3.802116999384e-10       9.625859007608e-14      -3.024328450600e-12       0.000000000000e+00       1.043689293306e-11       1.493484313024e-12      -6.942870020501e-15 
  102       3.846003817497e-10       9.818558770433e-14      -3.113439740468e-12       0.000000000000e+00       1.017266525285e-11       1.463540240213e-12      -6.906857017768e-15 
  103       3.890168224107e-10       1.000972108308e-13      -3.202705502206e-12       0.000000000000e+00       9.916612051275e-12       1.434418180629e-12      -6.865879783217e-15 
  104       3.934599502313e-10       1.019915577160e-13      -3.292054893383e-12       0.000000000000e+00       9.667921223341e-12       1.406035733695e-12      -6.818952517066e-15 
  105       3.979295327206e-10       1.038669081455e-13      -3.381420555750e-12       0.000000000000e+00       9.426485788712e-12       1.378384849866e-12      -6.766279405774e-15 
  106       4.024254720200e-10       1.057215821394e-13      -3.470735337061e-12       0.000000000000e+00       9.192345208094e-12       1.351472755990e-12      -6.708410047615e-15 
  107       4.069475542660e-10       1.075538907323e-13      -3.559931151082e-12       0.000000000000e+00       8.965487846263e-12       1.325301060425e-12      -6.645943302434e-15 
