# Matter power spectrum P(k) at redshift z=3
# for k=1.0347e-05 to 1.4771 h/Mpc,
# number of wavenumbers equal to 612
#    1:k (h/Mpc)              2:P (Mpc/h)^3        
       1.034698860059e-05       4.883255467412e+00 
       2.320384642927e-05       1.066551754979e+01 
       3.610552742768e-05       1.635721929746e+01 
       4.908661399019e-05       2.201539319826e+01 
       6.218225643874e-05       2.767308085472e+01 
       7.542848528121e-05       3.335542518335e+01 
       8.886253339297e-05       3.908417948124e+01 
       1.025231723928e-04       4.487956022521e+01 
       1.164510675175e-04       5.076120283749e+01 
       1.306891553322e-04       5.674874613511e+01 
       1.452830486212e-04       6.286224323843e+01 
       1.602814727479e-04       6.912248570731e+01 
       1.757367375976e-04       7.555128348598e+01 
       1.917052488604e-04       8.217172335376e+01 
       2.082480617697e-04       8.900841862479e+01 
       2.254314793620e-04       9.608775725921e+01 
       2.433276957019e-04       1.034381519390e+02 
       2.620154821035e-04       1.110902928671e+02 
       2.815809109153e-04       1.190774014368e+02 
       3.021181065931e-04       1.274354800929e+02 
       3.237300071977e-04       1.362035507019e+02 
       3.465291107203e-04       1.454238675238e+02 
       3.706381693886e-04       1.551420924458e+02 
       3.961907810810e-04       1.654074035820e+02 
       4.233318101817e-04       1.762725122120e+02 
       4.522175511463e-04       1.877935494278e+02 
       4.830155279929e-04       2.000297788103e+02 
       5.159038043499e-04       2.130430853141e+02 
       5.510696655253e-04       2.268971878490e+02 
       5.887075320004e-04       2.416565259757e+02 
       6.290159800052e-04       2.573847826751e+02 
       6.721937872040e-04       2.741430283202e+02 
       7.184349965047e-04       2.919875078584e+02 
       7.679231006851e-04       3.109632456070e+02 
       8.208245889142e-04       3.311162632065e+02 
       8.772822461820e-04       3.524593802247e+02 
       9.374087294109e-04       3.750115148421e+02 
       1.001281023594e-03       3.987848908180e+02 
       1.068936374073e-03       4.237297989326e+02 
       1.140370178698e-03       4.498252448145e+02 
       1.215536113907e-03       4.769687064286e+02 
       1.294348498427e-03       5.051655572274e+02 
       1.376686624069e-03       5.342918698026e+02 
       1.462400563694e-03       5.642420802362e+02 
       1.477104874446e-03       5.693428300089e+02 
       1.551317843771e-03       5.949249644332e+02 
       1.643250355858e-03       6.262485950518e+02 
       1.738000962082e-03       6.580951644290e+02 
       1.835369389860e-03       6.903702826608e+02 
       1.935157171637e-03       7.229684244836e+02 
       2.037171534074e-03       7.558194453340e+02 
       2.141228258183e-03       7.888096522052e+02 
       2.247153610461e-03       8.218904987509e+02 
       2.354785487487e-03       8.549809126726e+02 
       2.463973930290e-03       8.880182884779e+02 
       2.574581159043e-03       9.209524112449e+02 
       2.686481261581e-03       9.537283961243e+02 
       2.799559647107e-03       9.863138630577e+02 
       2.913712353615e-03       1.018655983363e+03 
       3.028845276487e-03       1.050720337603e+03 
       3.144873367664e-03       1.082495089903e+03 
       3.261719840091e-03       1.113966988760e+03 
       3.379315400604e-03       1.145089778661e+03 
       3.497597525789e-03       1.175852274095e+03 
       3.616509788905e-03       1.206226171965e+03 
       3.736001241521e-03       1.236215458938e+03 
       3.856025850345e-03       1.265820208293e+03 
       3.976541987712e-03       1.295001114647e+03 
       4.097511972928e-03       1.323793395154e+03 
       4.218901660940e-03       1.352176079456e+03 
       4.340680074459e-03       1.380115924605e+03 
       4.462819075601e-03       1.407642845130e+03 
       4.585293073203e-03       1.434723417814e+03 
       4.708078762133e-03       1.461391050755e+03 
       4.831154891227e-03       1.487627222154e+03 
       4.954502056691e-03       1.513051018272e+03 
       5.078102518179e-03       1.539825234719e+03 
       5.201940034948e-03       1.563754620547e+03 
       5.325999719858e-03       1.588730971372e+03 
       5.450267909132e-03       1.611506008357e+03 
       5.574732046112e-03       1.637832628257e+03 
       5.699380577387e-03       1.659668686231e+03 
       5.824202859886e-03       1.683204728843e+03 
       5.949189077687e-03       1.704086140009e+03 
       6.074330167448e-03       1.724441289987e+03 
       6.199617751480e-03       1.749511868826e+03 
       6.325044077601e-03       1.769104109736e+03 
       6.450601965044e-03       1.790825637117e+03 
       6.576284755715e-03       1.809567583836e+03 
       6.702086270248e-03       1.827909324442e+03 
       6.828000768317e-03       1.851353200757e+03 
       6.954022912760e-03       1.869079080899e+03 
       7.080147737099e-03       1.888974138503e+03 
       7.206370616112e-03       1.905918563507e+03 
       7.332687239126e-03       1.922538285558e+03 
       7.459093585760e-03       1.943943300595e+03 
       7.585585903859e-03       1.959947360403e+03 
       7.712160689409e-03       1.975635904633e+03 
       7.838814668225e-03       1.993347261755e+03 
       7.965544779239e-03       2.008303659654e+03 
       8.092348159241e-03       2.022985580022e+03 
       8.219222128916e-03       2.042039379658e+03 
       8.346164180067e-03       2.056156640996e+03 
       8.473171963907e-03       2.069892550605e+03 
       8.600243280318e-03       2.085516068147e+03 
       8.727376067988e-03       2.098647893385e+03 
       8.854568395354e-03       2.111466425049e+03 
       8.981818452263e-03       2.124046091538e+03 
       9.109124542299e-03       2.140489327691e+03 
       9.236485075715e-03       2.152493005673e+03 
       9.363898562909e-03       2.164156235642e+03 
       9.491363608413e-03       2.177465564075e+03 
       9.618878905331e-03       2.188546708122e+03 
       9.746443230202e-03       2.199351328187e+03 
       9.874055438253e-03       2.209902314889e+03 
       1.000171445900e-02       2.223854801225e+03 
       1.012941929218e-02       2.233911472653e+03 
       1.025716900397e-02       2.243673582740e+03 
       1.038496272350e-02       2.253155117112e+03 
       1.051279963958e-02       2.263991104541e+03 
       1.064067899773e-02       2.272932827737e+03 
       1.076860009736e-02       2.281605927182e+03 
       1.089656228915e-02       2.290028870820e+03 
       1.102456497269e-02       2.301383816682e+03 
       1.115260759417e-02       2.309377581326e+03 
       1.128068964436e-02       2.317082259140e+03 
       1.140881065661e-02       2.324502970009e+03 
       1.153697020509e-02       2.331704423342e+03 
       1.166516790307e-02       2.340094171837e+03 
       1.179340340140e-02       2.346764822085e+03 
       1.192167638704e-02       2.353217426967e+03 
       1.204998658167e-02       2.359476440687e+03 
       1.217833374051e-02       2.368214985182e+03 
       1.230671765110e-02       2.374068218822e+03 
       1.243513813220e-02       2.379653791955e+03 
       1.256359503283e-02       2.384978708410e+03 
       1.269208823132e-02       2.390121389386e+03 
       1.282061763439e-02       2.396227114162e+03 
       1.294918317643e-02       2.400929845547e+03 
       1.307778481870e-02       2.405366238122e+03 
       1.320642254864e-02       2.409641075873e+03 
       1.333509637926e-02       2.413722921475e+03 
       1.346380634855e-02       2.419887910544e+03 
       1.359255251892e-02       2.423594216955e+03 
       1.372133497673e-02       2.427084921189e+03 
       1.385015383182e-02       2.430330037725e+03 
       1.397900921712e-02       2.433390254395e+03 
       1.410790128825e-02       2.437306158597e+03 
       1.423683022320e-02       2.439989062186e+03 
       1.436579622201e-02       2.442447552468e+03 
       1.449479950653e-02       2.444774621423e+03 
       1.462384032012e-02       2.446880496087e+03 
       1.475291892752e-02       2.448865813372e+03 
       1.477104874446e-02       2.449131153737e+03 
       1.488203561458e-02       2.452580907417e+03 
       1.501119068819e-02       2.454180700584e+03 
       1.514038447607e-02       2.455586122881e+03 
       1.526961732674e-02       2.456850995652e+03 
       1.539888960936e-02       2.457971897387e+03 
       1.552820171377e-02       2.458865136865e+03 
       1.565755405035e-02       2.460388407261e+03 
       1.578694705010e-02       2.460950005710e+03 
       1.591638116458e-02       2.461347291499e+03 
       1.604585686599e-02       2.461580336017e+03 
       1.617537464718e-02       2.461641942221e+03 
       1.630493502174e-02       2.461585412891e+03 
       1.643453852407e-02       2.462971462464e+03 
       1.656418570952e-02       2.462644336606e+03 
       1.669387715447e-02       2.462180696201e+03 
       1.682361345650e-02       2.461500796956e+03 
       1.695339523455e-02       2.460695187086e+03 
       1.708322312908e-02       2.459721469201e+03 
       1.721309780229e-02       2.458583855987e+03 
       1.734301993830e-02       2.458057514961e+03 
       1.747299024340e-02       2.456657098127e+03 
       1.760300944628e-02       2.455138001488e+03 
       1.773307829833e-02       2.453394373266e+03 
       1.786319757386e-02       2.451615324797e+03 
       1.799336807044e-02       2.449680652828e+03 
       1.812359060919e-02       2.447647242436e+03 
       1.825386603510e-02       2.446802685208e+03 
       1.838419521742e-02       2.444544788582e+03 
       1.851457904996e-02       2.442113143406e+03 
       1.864501845152e-02       2.439604038374e+03 
       1.877551436625e-02       2.436908355315e+03 
       1.890606776409e-02       2.434152377364e+03 
       1.903667964116e-02       2.431241275975e+03 
       1.916735102027e-02       2.428201177922e+03 
       1.929808295132e-02       2.425647902178e+03 
       1.942887651183e-02       2.422449027792e+03 
       1.955973280742e-02       2.419079870834e+03 
       1.969065297231e-02       2.415652612666e+03 
       1.982163816991e-02       2.412083695426e+03 
       1.995268959335e-02       2.408428414646e+03 
       2.008380846604e-02       2.404683447600e+03 
       2.021499604229e-02       2.401919858003e+03 
       2.034625360794e-02       2.398010133569e+03 
       2.047758248096e-02       2.393981224642e+03 
       2.060898401215e-02       2.389853147834e+03 
       2.074045958578e-02       2.385613619134e+03 
       2.087201062034e-02       2.381283969396e+03 
       2.100363856925e-02       2.376826576096e+03 
       2.113534492157e-02       2.372318466301e+03 
       2.126713120287e-02       2.367758584805e+03 
       2.139899897590e-02       2.363572940265e+03 
       2.153094984154e-02       2.358797097360e+03 
       2.166298543957e-02       2.353953429687e+03 
       2.179510744958e-02       2.349037007773e+03 
       2.192731759186e-02       2.344022196544e+03 
       2.205961762835e-02       2.338955587960e+03 
       2.219200936360e-02       2.333812198902e+03 
       2.232449464574e-02       2.328604171133e+03 
       2.245707536753e-02       2.324233120055e+03 
       2.258975346741e-02       2.318890780994e+03 
       2.272253093058e-02       2.313498038415e+03 
       2.285540979015e-02       2.307996252194e+03 
       2.298839212825e-02       2.302452521262e+03 
       2.312148007727e-02       2.296817607552e+03 
       2.325467582106e-02       2.291130265701e+03 
       2.338798159624e-02       2.285383796940e+03 
       2.352139969346e-02       2.279536826453e+03 
       2.365493245880e-02       2.273665136122e+03 
       2.378858229514e-02       2.268071950570e+03 
       2.392235166360e-02       2.262063351734e+03 
       2.405624308504e-02       2.255998484984e+03 
       2.419025914158e-02       2.249887023072e+03 
       2.432440247819e-02       2.243737566694e+03 
       2.445867580432e-02       2.237503882762e+03 
       2.459308189560e-02       2.231224575243e+03 
       2.472762359556e-02       2.224939208057e+03 
       2.486230381745e-02       2.218590594151e+03 
       2.499712554609e-02       2.212871276413e+03 
       2.513209183979e-02       2.206453542024e+03 
       2.526720583234e-02       2.199955445926e+03 
       2.540247073504e-02       2.193446775229e+03 
       2.553788983887e-02       2.186869902778e+03 
       2.567346651660e-02       2.180250567515e+03 
       2.580920422512e-02       2.173579292576e+03 
       2.594510650778e-02       2.166890552408e+03 
       2.608117699677e-02       2.160143348099e+03 
       2.621741941567e-02       2.153370594749e+03 
       2.635383758201e-02       2.146865895112e+03 
       2.649043541000e-02       2.140021473596e+03 
       2.662721691324e-02       2.133133436797e+03 
       2.676418620767e-02       2.126211376767e+03 
       2.690134751451e-02       2.119294441725e+03 
       2.703870516335e-02       2.112322919888e+03 
       2.717626359538e-02       2.105322262097e+03 
       2.731402736664e-02       2.098298055380e+03 
       2.745200115152e-02       2.091262909619e+03 
       2.759018974632e-02       2.084187620692e+03 
       2.772859807290e-02       2.077090054818e+03 
       2.786723118256e-02       2.070510029659e+03 
       2.800609425999e-02       2.063359215554e+03 
       2.814519262743e-02       2.056233382271e+03 
       2.828453174892e-02       2.049053256022e+03 
       2.842411723480e-02       2.041812820677e+03 
       2.856395484629e-02       2.034620610300e+03 
       2.870405050034e-02       2.027382646236e+03 
       2.884441027460e-02       2.020104991132e+03 
       2.898504041264e-02       2.012816570699e+03 
       2.912594732931e-02       2.005520660049e+03 
       2.926713761644e-02       1.998193609323e+03 
       2.940861804859e-02       1.991099608477e+03 
       2.955039558926e-02       1.983753193995e+03 
       2.969247739712e-02       1.976382870992e+03 
       2.983487083272e-02       1.968998153213e+03 
       2.997758346529e-02       1.961619277349e+03 
       3.012062308001e-02       1.954224042916e+03 
       3.026399768540e-02       1.946815167428e+03 
       3.040771552121e-02       1.939370455650e+03 
       3.055178506654e-02       1.931945232360e+03 
       3.069621504835e-02       1.924524025301e+03 
       3.084101445033e-02       1.917099602193e+03 
       3.098619252223e-02       1.910043016233e+03 
       3.113175878951e-02       1.902608340875e+03 
       3.127772306353e-02       1.895157453403e+03 
       3.142409545212e-02       1.887707225024e+03 
       3.157088637072e-02       1.880229736506e+03 
       3.171810655396e-02       1.872761795337e+03 
       3.186576706789e-02       1.865291113213e+03 
       3.201387932267e-02       1.857801343450e+03 
       3.216245508598e-02       1.850319050498e+03 
       3.231150649702e-02       1.842834833085e+03 
       3.246104608120e-02       1.835335933838e+03 
       3.261108676562e-02       1.827854397383e+03 
       3.276164189523e-02       1.820537514528e+03 
       3.291272524986e-02       1.813054408547e+03 
       3.306435106215e-02       1.805555527329e+03 
       3.321653403633e-02       1.798070412524e+03 
       3.336928936805e-02       1.790580219996e+03 
       3.352263276521e-02       1.783086923503e+03 
       3.367658046992e-02       1.775605536911e+03 
       3.383114928164e-02       1.768125316761e+03 
       3.398635658153e-02       1.760644204469e+03 
       3.414222035828e-02       1.753165359437e+03 
       3.429875923516e-02       1.745693545861e+03 
       3.445599249881e-02       1.738234024190e+03 
       3.461394012949e-02       1.731063370844e+03 
       3.477262283319e-02       1.723605556101e+03 
       3.493206207553e-02       1.716165539738e+03 
       3.509228011770e-02       1.708701471323e+03 
       3.525330005451e-02       1.701248613152e+03 
       3.541514585471e-02       1.693802382283e+03 
       3.557784240385e-02       1.686347740200e+03 
       3.574141554967e-02       1.678909575836e+03 
       3.590589215039e-02       1.671471330318e+03 
       3.607130012605e-02       1.664031259006e+03 
       3.623766851305e-02       1.656607463920e+03 
       3.640502752237e-02       1.649183695552e+03 
       3.657340860144e-02       1.641901699527e+03 
       3.674284450023e-02       1.634480453320e+03 
       3.691336934172e-02       1.627074325673e+03 
       3.708501869721e-02       1.619671746211e+03 
       3.725782966684e-02       1.612263552266e+03 
       3.743184096566e-02       1.604868738265e+03 
       3.760709301589e-02       1.597477308959e+03 
       3.778362804578e-02       1.590084631892e+03 
       3.796149019569e-02       1.582706229483e+03 
       3.814072563198e-02       1.575329657096e+03 
       3.832138266946e-02       1.567960710880e+03 
       3.850351190317e-02       1.560592063679e+03 
       3.868716635034e-02       1.553227530310e+03 
       3.887240160339e-02       1.546101905281e+03 
       3.905927599524e-02       1.538745165088e+03 
       3.924785077786e-02       1.531399339199e+03 
       3.943819031550e-02       1.524048522126e+03 
       3.963036229403e-02       1.516693406498e+03 
       3.982443794800e-02       1.509348962131e+03 
       4.002049230723e-02       1.502002073071e+03 
       4.021860446498e-02       1.494653266614e+03 
       4.041885786993e-02       1.487301482596e+03 
       4.062134064461e-02       1.479959617398e+03 
       4.082614593310e-02       1.472607464495e+03 
       4.103337228131e-02       1.465354923735e+03 
       4.124312405347e-02       1.458003911300e+03 
       4.145551188903e-02       1.450638048730e+03 
       4.167065320468e-02       1.443277764476e+03 
       4.188867274702e-02       1.435921007268e+03 
       4.210970320174e-02       1.428545873961e+03 
       4.233388586663e-02       1.421157003703e+03 
       4.256137139634e-02       1.413773119825e+03 
       4.279232062804e-02       1.406376676730e+03 
       4.302690549884e-02       1.398975224186e+03 
       4.326531006707e-02       1.391566887847e+03 
       4.350773165169e-02       1.384302535407e+03 
       4.375438210642e-02       1.376869575235e+03 
       4.400548924763e-02       1.369411148792e+03 
       4.426129845858e-02       1.361938370956e+03 
       4.452207449624e-02       1.354445021215e+03 
       4.478810353144e-02       1.346930747682e+03 
       4.505969545891e-02       1.339387077574e+03 
       4.533718652002e-02       1.331824536000e+03 
       4.562094228950e-02       1.324227523486e+03 
       4.591136108677e-02       1.316607612053e+03 
       4.620887788469e-02       1.309020147371e+03 
       4.651396880302e-02       1.301328525710e+03 
       4.682715629164e-02       1.293595469678e+03 
       4.714901513095e-02       1.285813115535e+03 
       4.748017940377e-02       1.277989660666e+03 
       4.782135062759e-02       1.270108848666e+03 
       4.817330727806e-02       1.262179267657e+03 
       4.853691598815e-02       1.254184800660e+03 
       4.891314477456e-02       1.246251254601e+03 
       4.930307872758e-02       1.238109680249e+03 
       4.970793870845e-02       1.229889755182e+03 
       5.012910373494e-02       1.221571218871e+03 
       5.056813791005e-02       1.213153091797e+03 
       5.102682297127e-02       1.204613926981e+03 
       5.150719782050e-02       1.195953174676e+03 
       5.201160675367e-02       1.187205952206e+03 
       5.254275856057e-02       1.178240646168e+03 
       5.310379922485e-02       1.169091686041e+03 
       5.369840162856e-02       1.159732238325e+03 
       5.433087644092e-02       1.150136034041e+03 
       5.500630917823e-02       1.140366770242e+03 
       5.573072907923e-02       1.130164475165e+03 
       5.651131553291e-02       1.119563660066e+03 
       5.735664644938e-02       1.108485886653e+03 
       5.827698844208e-02       1.096869073283e+03 
       5.928461771429e-02       1.084490158692e+03 
