# Matter power spectrum P(k) at redshift z=3
# for k=1.04134e-05 to 1.4771 h/Mpc,
# number of wavenumbers equal to 614
#    1:k (h/Mpc)              2:P (Mpc/h)^3        
       1.041341639285e-05       4.776468599540e+00 
       2.327042171641e-05       1.039668753321e+01 
       3.617242813832e-05       1.592932239688e+01 
       4.915402023115e-05       2.142959941181e+01 
       6.225035209231e-05       2.692958889031e+01 
       7.549745964336e-05       3.245372072961e+01 
       8.893258287439e-05       3.802314457516e+01 
       1.025945023052e-04       4.365752425615e+01 
       1.165238939670e-04       4.937596461831e+01 
       1.307637072433e-04       5.519757898985e+01 
       1.453595699131e-04       6.114188867533e+01 
       1.603602246847e-04       6.722913852001e+01 
       1.758180013342e-04       7.348056982770e+01 
       1.917893282013e-04       7.991867266775e+01 
       2.083352861545e-04       8.656742997136e+01 
       2.255222070858e-04       9.345256041773e+01 
       2.434223173661e-04       1.006017635085e+02 
       2.621144242800e-04       1.080449683170e+02 
       2.816846399840e-04       1.158149684005e+02 
       3.022271326848e-04       1.239461511845e+02 
       3.238448881340e-04       1.324758764015e+02 
       3.466504557910e-04       1.414475127689e+02 
       3.707666427421e-04       1.509046704807e+02 
       3.963271044220e-04       1.608954348798e+02 
       4.234767643783e-04       1.714713822928e+02 
       4.523719762441e-04       1.826874810091e+02 
       4.831803210321e-04       1.946018249123e+02 
       5.160799142935e-04       2.072745749172e+02 
       5.512580845623e-04       2.207694606297e+02 
       5.889092825176e-04       2.351494134435e+02 
       6.292320966663e-04       2.504754889631e+02 
       6.724252938746e-04       2.668116068817e+02 
       7.186828782417e-04       2.842120984408e+02 
       7.681882716622e-04       3.027259959063e+02 
       8.211078579216e-04       3.224534099441e+02 
       8.775842821015e-04       3.432909601066e+02 
       9.377300296499e-04       3.653063907862e+02 
       1.001621888673e-03       3.886376893962e+02 
       1.069296891262e-03       4.130977296086e+02 
       1.140750216732e-03       4.387207439527e+02 
       1.215935329537e-03       4.653638267478e+02 
       1.294766354091e-03       4.930374343639e+02 
       1.377122414638e-03       5.216523927079e+02 
       1.462853449349e-03       5.511037781103e+02 
       1.477104874446e-03       5.559618963413e+02 
       1.551786885706e-03       5.812721887411e+02 
       1.643734551712e-03       6.121007467583e+02 
       1.738499278605e-03       6.435260797345e+02 
       1.835880791120e-03       6.753769888021e+02 
       1.935680641929e-03       7.075600744767e+02 
       2.037706095352e-03       7.400425157224e+02 
       2.141772982368e-03       7.726619521724e+02 
       2.247707627289e-03       8.053969445041e+02 
       2.355347988681e-03       8.381456543301e+02 
       2.464544170867e-03       8.708461470945e+02 
       2.575158456501e-03       9.034781199666e+02 
       2.687064993601e-03       9.359582477419e+02 
       2.800149248285e-03       9.682357255484e+02 
       2.914307311625e-03       1.000291453854e+03 
       3.029445127977e-03       1.032072961933e+03 
       3.145477694107e-03       1.063564646246e+03 
       3.262328263719e-03       1.094724219292e+03 
       3.379927580545e-03       1.125540842627e+03 
       3.498213154441e-03       1.155983293555e+03 
       3.617128588596e-03       1.186051577903e+03 
       3.736622961449e-03       1.215716018460e+03 
       3.856650263801e-03       1.244965677603e+03 
       3.977168889580e-03       1.273793647750e+03 
       4.098141177433e-03       1.302200545049e+03 
       4.219532999635e-03       1.330165171145e+03 
       4.341313394425e-03       1.357686594583e+03 
       4.463454237843e-03       1.384759940626e+03 
       4.585929951218e-03       1.411382645736e+03 
       4.708717240641e-03       1.437560905065e+03 
       4.831794865030e-03       1.463933779561e+03 
       4.955143429673e-03       1.513431285210e+03 
       5.078745202400e-03       1.508418805103e+03 
       5.202583949847e-03       1.549439848588e+03 
       5.326644791538e-03       1.570895712810e+03 
       5.450914069723e-03       1.605817718529e+03 
       5.575379233204e-03       1.611979502002e+03 
       5.700028733518e-03       1.642543182401e+03 
       5.824851932088e-03       1.672752578639e+03 
       5.949839017081e-03       1.690575034411e+03 
       6.074980928875e-03       1.716633637551e+03 
       6.200269293172e-03       1.729030695840e+03 
       6.325696360890e-03       1.752699280939e+03 
       6.451254954091e-03       1.771518545431e+03 
       6.576938417273e-03       1.793341667973e+03 
       6.702740573446e-03       1.814253562071e+03 
       6.828655684464e-03       1.829757650851e+03 
       6.954678415165e-03       1.849176497206e+03 
       7.080803800918e-03       1.866860541966e+03 
       7.207027218197e-03       1.885127252723e+03 
       7.333344357894e-03       1.902747320888e+03 
       7.459751201076e-03       1.919231556391e+03 
       7.586243996923e-03       1.935821246799e+03 
       7.712819242660e-03       1.951937342723e+03 
       7.839473665248e-03       1.967851491395e+03 
       7.966204204685e-03       1.982939011665e+03 
       8.093007998748e-03       1.997578860733e+03 
       8.219882369041e-03       2.013427633819e+03 
       8.346824808225e-03       2.027325136814e+03 
       8.473832968310e-03       2.040657330216e+03 
       8.600904649922e-03       2.054919122432e+03 
       8.728037792447e-03       2.067513654642e+03 
       8.855230464970e-03       2.079685120838e+03 
       8.982480857949e-03       2.091498455279e+03 
       9.109787275538e-03       2.105833938033e+03 
       9.237148128526e-03       2.117035733651e+03 
       9.364561927815e-03       2.127769757245e+03 
       9.492027278411e-03       2.139783246320e+03 
       9.619542873861e-03       2.149935394577e+03 
       9.747107491128e-03       2.159672063629e+03 
       9.874719985833e-03       2.169031517882e+03 
       1.000237928787e-02       2.181604325633e+03 
       1.013008439732e-02       2.190494526493e+03 
       1.025783438071e-02       2.199032884937e+03 
       1.038562836747e-02       2.207216327709e+03 
       1.051346554673e-02       2.216887690541e+03 
       1.064134516430e-02       2.224402481983e+03 
       1.076926651983e-02       2.231728070221e+03 
       1.089722896430e-02       2.238591920752e+03 
       1.102523189752e-02       2.249023970187e+03 
       1.115327476593e-02       2.255509310144e+03 
       1.128135706051e-02       2.261719011989e+03 
       1.140947831485e-02       2.267640415012e+03 
       1.153763810331e-02       2.273255247418e+03 
       1.166583603937e-02       2.280315548649e+03 
       1.179407177406e-02       2.285401489620e+03 
       1.192234499452e-02       2.290236303294e+03 
       1.205065542263e-02       2.294800478718e+03 
       1.217900281377e-02       2.302837792638e+03 
       1.230738695563e-02       2.306951939358e+03 
       1.243580766714e-02       2.310790396427e+03 
       1.256426479749e-02       2.314426304837e+03 
       1.269275822512e-02       2.317690120669e+03 
       1.282128785695e-02       2.322676155163e+03 
       1.294985362747e-02       2.325608022304e+03 
       1.307845549808e-02       2.328343654433e+03 
       1.320709345638e-02       2.330806720987e+03 
       1.333576751549e-02       2.332790582304e+03 
       1.346447771353e-02       2.338572386514e+03 
       1.359322411304e-02       2.340394759454e+03 
       1.372200680050e-02       2.341942743322e+03 
       1.385082588588e-02       2.343331247696e+03 
       1.397968150222e-02       2.344481974177e+03 
       1.410857380526e-02       2.347174469327e+03 
       1.423750297311e-02       2.347977195438e+03 
       1.436646920591e-02       2.348630829656e+03 
       1.449547272563e-02       2.348846175336e+03 
       1.462451377575e-02       2.349079278485e+03 
       1.475359262110e-02       2.349011408212e+03 
       1.477104874446e-02       2.349013304926e+03 
       1.488270954767e-02       2.352248462907e+03 
       1.501186486242e-02       2.351991429076e+03 
       1.514105889322e-02       2.351499186347e+03 
       1.527029198865e-02       2.350710270387e+03 
       1.539956451803e-02       2.349819908706e+03 
       1.552887687126e-02       2.348605766585e+03 
       1.565822945886e-02       2.349164579278e+03 
       1.578762271193e-02       2.347779061237e+03 
       1.591705708212e-02       2.346150008452e+03 
       1.604653304176e-02       2.344380392167e+03 
       1.617605108379e-02       2.342388987316e+03 
       1.630561172191e-02       2.340412491422e+03 
       1.643521549064e-02       2.341405410255e+03 
       1.656486294542e-02       2.339091888977e+03 
       1.669455466276e-02       2.336527673125e+03 
       1.682429124034e-02       2.333985821760e+03 
       1.695407329722e-02       2.331211161067e+03 
       1.708390147396e-02       2.328179387422e+03 
       1.721377643288e-02       2.325189661632e+03 
       1.734369885821e-02       2.323487147294e+03 
       1.747366945636e-02       2.320183873213e+03 
       1.760368895615e-02       2.316630211487e+03 
       1.773375810907e-02       2.313110654257e+03 
       1.786387768955e-02       2.309241637262e+03 
       1.799404849529e-02       2.305465348235e+03 
       1.812427134752e-02       2.301402207721e+03 
       1.825454709138e-02       2.300360100591e+03 
       1.838487659622e-02       2.296112868723e+03 
       1.851526075600e-02       2.291896942433e+03 
       1.864570048964e-02       2.287403947923e+03 
       1.877619674142e-02       2.282905807724e+03 
       1.890675048142e-02       2.278185645909e+03 
       1.903736270590e-02       2.273449119224e+03 
       1.916803443781e-02       2.268502533033e+03 
       1.929876672719e-02       2.265072743724e+03 
       1.942956065169e-02       2.259930695369e+03 
       1.956041731709e-02       2.254865189189e+03 
       1.969133785777e-02       2.249488063818e+03 
       1.982232343729e-02       2.244217835845e+03 
       1.995337524892e-02       2.238662022216e+03 
       2.008449451625e-02       2.233190688192e+03 
       2.021568249373e-02       2.230273865964e+03 
       2.034694046738e-02       2.224574912946e+03 
       2.047826975534e-02       2.218826396714e+03 
       2.060967170856e-02       2.212923705412e+03 
       2.074114771152e-02       2.207044230009e+03 
       2.087269918287e-02       2.200989034614e+03 
       2.100432757621e-02       2.194908863649e+03 
       2.113603438081e-02       2.188698039250e+03 
       2.126782112240e-02       2.182452861061e+03 
       2.139968936395e-02       2.177445258456e+03 
       2.153164070652e-02       2.171101209281e+03 
       2.166367679012e-02       2.164638192689e+03 
       2.179579929452e-02       2.158092343582e+03 
       2.192800994025e-02       2.151554372552e+03 
       2.206031048946e-02       2.144881975686e+03 
       2.219270274691e-02       2.138133168220e+03 
       2.232518856097e-02       2.131410915377e+03 
       2.245776982464e-02       2.127020449118e+03 
       2.259044847660e-02       2.120223280095e+03 
       2.272322650230e-02       2.113268286732e+03 
       2.285610593508e-02       2.106384974006e+03 
       2.298908885734e-02       2.099321970108e+03 
       2.312217740173e-02       2.092337317222e+03 
       2.325537375239e-02       2.085173379950e+03 
       2.338868014620e-02       2.077983325747e+03 
       2.352209887410e-02       2.070837079784e+03 
       2.365563228246e-02       2.063563791256e+03 
       2.378928277446e-02       2.057405166647e+03 
       2.392305281152e-02       2.050151210455e+03 
       2.405694491482e-02       2.042746103278e+03 
       2.419096166680e-02       2.035425836883e+03 
       2.432510571276e-02       2.027941903846e+03 
       2.445937976250e-02       2.020425061298e+03 
       2.459378659199e-02       2.012996187074e+03 
       2.472832904511e-02       2.005405330977e+03 
       2.486301003549e-02       1.997880031048e+03 
       2.499783254832e-02       1.992420518443e+03 
       2.513279964230e-02       1.984786948604e+03 
       2.526791445162e-02       1.977228694151e+03 
       2.540318018799e-02       1.969536360757e+03 
       2.553860014279e-02       1.961838795374e+03 
       2.567417768923e-02       1.954172305405e+03 
       2.580991628467e-02       1.946459656871e+03 
       2.594581947288e-02       1.938687061417e+03 
       2.608189088653e-02       1.930974494651e+03 
       2.621813424969e-02       1.923129809599e+03 
       2.635455338037e-02       1.916333345748e+03 
       2.649115219330e-02       1.908555645004e+03 
       2.662793470260e-02       1.900705455542e+03 
       2.676490502475e-02       1.892936817198e+03 
       2.690206738153e-02       1.885040678698e+03 
       2.703942610310e-02       1.877151113151e+03 
       2.717698563122e-02       1.869304650494e+03 
       2.731475052256e-02       1.861426108676e+03 
       2.745272545213e-02       1.853475872017e+03 
       2.759091521686e-02       1.845615325363e+03 
       2.772932473929e-02       1.837686167834e+03 
       2.786795907138e-02       1.831564050696e+03 
       2.800682339854e-02       1.823699870274e+03 
       2.814592304372e-02       1.815775554025e+03 
       2.828526347173e-02       1.807842301869e+03 
       2.842485029367e-02       1.799949859332e+03 
       2.856468927156e-02       1.792043023567e+03 
       2.870478632317e-02       1.784086080508e+03 
       2.884514752700e-02       1.776218793877e+03 
       2.898577912748e-02       1.768256625359e+03 
       2.912668754039e-02       1.760318901414e+03 
       2.926787935847e-02       1.752450094211e+03 
       2.940936135727e-02       1.745306254823e+03 
       2.955114050126e-02       1.737395197191e+03 
       2.969322395016e-02       1.729476922980e+03 
       2.983561906558e-02       1.721616659191e+03 
       2.997833341786e-02       1.713679371652e+03 
       3.012137479331e-02       1.705836051140e+03 
       3.026475120163e-02       1.697962740482e+03 
       3.040847088380e-02       1.690045573492e+03 
       3.055254232018e-02       1.682188575920e+03 
       3.069697423904e-02       1.674337801444e+03 
       3.084177562543e-02       1.666442684805e+03 
       3.098695573051e-02       1.660098562682e+03 
       3.113252408119e-02       1.652261001047e+03 
       3.127849049034e-02       1.644447774565e+03 
       3.142486506737e-02       1.636617487845e+03 
       3.157165822933e-02       1.628870397617e+03 
       3.171888071256e-02       1.621055645306e+03 
       3.186654358484e-02       1.613257315308e+03 
       3.201465825817e-02       1.605531771025e+03 
       3.216323650212e-02       1.597774293314e+03 
       3.231229045785e-02       1.590024590411e+03 
       3.246183265283e-02       1.582343074703e+03 
       3.261187601626e-02       1.574597849085e+03 
       3.276243389532e-02       1.567555204493e+03 
       3.291352007215e-02       1.559857627297e+03 
       3.306514878178e-02       1.552229921654e+03 
       3.321733473094e-02       1.544558807053e+03 
       3.337009311790e-02       1.536927206294e+03 
       3.352343965325e-02       1.529316582906e+03 
       3.367739058195e-02       1.521681213973e+03 
       3.383196270640e-02       1.514079882730e+03 
       3.398717341088e-02       1.506545338691e+03 
       3.414304068726e-02       1.498954794647e+03 
       3.429958316221e-02       1.491409900278e+03 
       3.445682012587e-02       1.483855214398e+03 
       3.461477156221e-02       1.477539626260e+03 
       3.477345818105e-02       1.470042628548e+03 
       3.493290145205e-02       1.462569980625e+03 
       3.509312364064e-02       1.455139856833e+03 
       3.525414784604e-02       1.447684480218e+03 
       3.541599804166e-02       1.440251931150e+03 
       3.557869911793e-02       1.432880420893e+03 
       3.574227692769e-02       1.425472674649e+03 
       3.590675833456e-02       1.418098856155e+03 
       3.607217126419e-02       1.410766663904e+03 
       3.623854475898e-02       1.403402174567e+03 
       3.640590903612e-02       1.396076023269e+03 
       3.657429554965e-02       1.389286610768e+03 
       3.674373705646e-02       1.382030898032e+03 
       3.691426768686e-02       1.374742740374e+03 
       3.708592301988e-02       1.367473558003e+03 
       3.725874016380e-02       1.360243841763e+03 
       3.743275784229e-02       1.353007714685e+03 
       3.760801648669e-02       1.345792278720e+03 
       3.778455833488e-02       1.338628334895e+03 
       3.796242753744e-02       1.331430933374e+03 
       3.814167027156e-02       1.324272983421e+03 
       3.832233486352e-02       1.317098659690e+03 
       3.850447192057e-02       1.309993960151e+03 
       3.868813447288e-02       1.302848033223e+03 
       3.887337812668e-02       1.296661556707e+03 
       3.906026122954e-02       1.289586161713e+03 
       3.924884504907e-02       1.282494167415e+03 
       3.943919396620e-02       1.275431813570e+03 
       3.963137568462e-02       1.268397250084e+03 
       3.982546145792e-02       1.261338724801e+03 
       4.002152633629e-02       1.254299256054e+03 
       4.021964943480e-02       1.247278505134e+03 
       4.041991422553e-02       1.240276358315e+03 
       4.062240885615e-02       1.233248227539e+03 
       4.082722649777e-02       1.226265220598e+03 
       4.103446572536e-02       1.219657156689e+03 
       4.124423093448e-02       1.212662890981e+03 
       4.145663279841e-02       1.205711675354e+03 
       4.167178877040e-02       1.198731765174e+03 
       4.188982363661e-02       1.191766978330e+03 
       4.211087012560e-02       1.184825110582e+03 
       4.233506958172e-02       1.177856035957e+03 
       4.256257271023e-02       1.170880839358e+03 
       4.279354040343e-02       1.163938361808e+03 
       4.302814465857e-02       1.156975469448e+03 
       4.326656959972e-02       1.149992273263e+03 
       4.350901261782e-02       1.143738934698e+03 
       4.375568564555e-02       1.136760434561e+03 
       4.400681658609e-02       1.129798287728e+03 
       4.426265091835e-02       1.122813617951e+03 
       4.452345350488e-02       1.115818925488e+03 
       4.478951063334e-02       1.108806953415e+03 
       4.506113232804e-02       1.101803734096e+03 
       4.533865497444e-02       1.094754402133e+03 
       4.562244430789e-02       1.087715215468e+03 
       4.591289882736e-02       1.080610803114e+03 
       4.621045370695e-02       1.073831726994e+03 
       4.651558529265e-02       1.066722674541e+03 
       4.682881628950e-02       1.059535117733e+03 
       4.715072176650e-02       1.052362176379e+03 
       4.748193613410e-02       1.045121691414e+03 
       4.782316128298e-02       1.037872468622e+03 
       4.817517611543e-02       1.030541093366e+03 
       4.853884775411e-02       1.023191759819e+03 
       4.891514477994e-02       1.016290358953e+03 
       4.930515293612e-02       1.008823990166e+03 
       4.971009384271e-02       1.001266275677e+03 
       5.013134740329e-02       9.936421093396e+02 
       5.057047875996e-02       9.859142217319e+02 
       5.102927087491e-02       9.781134052020e+02 
       5.150976410065e-02       9.701822448104e+02 
       5.201430446000e-02       9.623681601947e+02 
       5.254560280885e-02       9.541803253884e+02 
       5.310680761483e-02       9.458307260982e+02 
       5.370159476026e-02       9.373097616712e+02 
       5.433427855303e-02       9.285773088019e+02 
       5.500994893646e-02       9.199859931882e+02 
       5.573464054486e-02       9.107281926047e+02 
       5.651553933959e-02       9.011298918240e+02 
       5.736123120304e-02       8.911206683195e+02 
       5.828199232210e-02       8.807976835631e+02 
       5.929011017201e-02       8.696890908676e+02 
