# Matter power spectrum P(k) at redshift z=3
# for k=1.043e-05 to 1.4771 h/Mpc,
# number of wavenumbers equal to 614
#    1:k (h/Mpc)              2:P (Mpc/h)^3        
       1.042996193060e-05       4.788086325213e+00 
       2.328700427501e-05       1.041316243002e+01 
       3.618909203762e-05       1.595069868852e+01 
       4.917081033593e-05       2.145592349923e+01 
       6.226731421023e-05       2.696092998649e+01 
       7.551464093302e-05       3.249017394828e+01 
       8.895003226918e-05       3.806483238694e+01 
       1.026122709583e-04       4.370459811300e+01 
       1.165420357234e-04       4.942860709502e+01 
       1.307822791439e-04       5.525600655840e+01 
       1.453786327371e-04       6.120635519732e+01 
       1.603798435355e-04       6.729993955676e+01 
       1.758382462736e-04       7.355804789510e+01 
       1.918102749373e-04       8.000322359834e+01 
       2.083570167854e-04       8.665951058760e+01 
       2.255448109025e-04       9.355269777090e+01 
       2.434458917124e-04       1.007105661113e+02 
       2.621390754657e-04       1.081631391982e+02 
       2.817104842415e-04       1.159429357019e+02 
       3.022542971514e-04       1.240852193853e+02 
       3.238735118339e-04       1.326282391553e+02 
       3.466806905765e-04       1.416134477541e+02 
       3.707986541379e-04       1.510856829530e+02 
       3.963610722973e-04       1.610932894428e+02 
       4.235128833466e-04       1.716881530845e+02 
       4.524104556657e-04       1.829256120796e+02 
       4.832213844684e-04       1.948642025845e+02 
       5.161237982417e-04       2.075651904549e+02 
       5.513050362857e-04       2.210918378922e+02 
       5.889595567964e-04       2.355083561477e+02 
       6.292859513293e-04       2.508785060021e+02 
       6.724829840459e-04       2.672638293721e+02 
       7.187446493588e-04       2.847215301759e+02 
       7.682543514815e-04       3.033020704205e+02 
       8.211784479212e-04       3.230466046499e+02 
       8.776595488799e-04       3.439844340529e+02 
       9.378100970635e-04       3.661307078542e+02 
       1.001706831510e-03       3.894846191748e+02 
       1.069386731171e-03       4.140280953631e+02 
       1.140844920916e-03       4.397264179380e+02 
       1.216034812388e-03       4.665282994028e+02 
       1.294870481603e-03       4.943663850307e+02 
       1.377231011076e-03       5.231627517695e+02 
       1.462966305442e-03       5.528282388504e+02 
       1.477104874446e-03       5.576899933624e+02 
       1.551903767543e-03       5.832679538974e+02 
       1.643855209568e-03       6.143845844878e+02 
       1.738623455074e-03       6.460736423640e+02 
       1.836008228147e-03       6.782420176752e+02 
       1.935811086505e-03       7.107928099065e+02 
       2.037839303859e-03       7.436359618611e+02 
       2.141908723640e-03       7.766871062330e+02 
       2.247845684565e-03       8.098708578673e+02 
       2.355488160643e-03       8.431135350511e+02 
       2.464686271964e-03       8.763485611965e+02 
       2.575302316746e-03       9.095217665218e+02 
       2.687210457996e-03       9.425797110217e+02 
       2.800296176008e-03       9.754756440819e+02 
       2.914455575074e-03       1.008172541517e+03 
       3.029594611748e-03       1.040630568275e+03 
       3.145628293959e-03       1.072822920786e+03 
       3.262479885563e-03       1.104725065056e+03 
       3.380080139481e-03       1.136303203776e+03 
       3.498366573855e-03       1.167546232512e+03 
       3.617282799328e-03       1.198434846100e+03 
       3.736777901031e-03       1.228954889714e+03 
       3.856805875766e-03       1.259092449548e+03 
       3.977325122837e-03       1.288838032420e+03 
       4.098297985711e-03       1.318180322036e+03 
       4.219690340976e-03       1.347116686575e+03 
       4.341471230740e-03       1.375638238329e+03 
       4.463612534511e-03       1.403743829833e+03 
       4.586088676729e-03       1.431423540345e+03 
       4.708876366278e-03       1.458681962452e+03 
       4.831954364592e-03       1.485515439153e+03 
       4.955303279216e-03       1.511900006491e+03 
       5.078905380019e-03       1.537979073874e+03 
       5.202744435475e-03       1.563461330120e+03 
       5.326805566767e-03       1.588611903883e+03 
       5.451075117647e-03       1.613222432544e+03 
       5.575540538276e-03       1.637687702690e+03 
       5.700190281424e-03       1.661449074777e+03 
       5.825013709634e-03       1.684768997332e+03 
       5.950001012091e-03       1.707841219165e+03 
       6.075143130099e-03       1.730349538765e+03 
       6.200431690205e-03       1.752731380442e+03 
       6.325858944100e-03       1.774429102905e+03 
       6.451417714549e-03       1.795850651995e+03 
       6.577101346698e-03       1.816745059777e+03 
       6.702903664146e-03       1.837253514490e+03 
       6.828818929291e-03       1.857592495435e+03 
       6.954841807472e-03       1.877322880471e+03 
       7.080967334515e-03       1.896760486031e+03 
       7.207190887316e-03       1.915712895952e+03 
       7.333508157160e-03       1.934297024676e+03 
       7.459915125472e-03       1.952678042001e+03 
       7.586408041766e-03       1.970505093474e+03 
       7.712983403575e-03       1.987978472505e+03 
       7.839637938145e-03       2.005155356906e+03 
       7.966368585740e-03       2.021892407649e+03 
       8.093172484383e-03       2.038276175669e+03 
       8.220046955908e-03       2.054440523733e+03 
       8.346989493188e-03       2.070125010136e+03 
       8.473997748432e-03       2.085457026974e+03 
       8.601069522452e-03       2.100513565798e+03 
       8.728202754807e-03       2.115167921775e+03 
       8.855395514745e-03       2.129486647909e+03 
       8.982645992873e-03       2.143477096943e+03 
       9.109952493491e-03       2.157237543999e+03 
       9.237313427519e-03       2.170576778045e+03 
       9.364727305986e-03       2.183593733097e+03 
       9.492192734014e-03       2.196336360444e+03 
       9.619708405264e-03       2.208725670180e+03 
       9.747273096799e-03       2.220801805824e+03 
       9.874885664344e-03       2.232572963631e+03 
       1.000254503788e-02       2.244114405453e+03 
       1.013025021759e-02       2.255284356240e+03 
       1.025800027006e-02       2.266157458100e+03 
       1.038579432483e-02       2.276735629964e+03 
       1.051363157108e-02       2.287057105103e+03 
       1.064151125469e-02       2.297059173048e+03 
       1.076943267541e-02       2.306781324047e+03 
       1.089739518425e-02       2.316220001659e+03 
       1.102539818110e-02       2.325440898014e+03 
       1.115344111245e-02       2.334332303267e+03 
       1.128152346935e-02       2.342953903657e+03 
       1.140964478543e-02       2.351308241812e+03 
       1.153780463510e-02       2.359399229935e+03 
       1.166600263189e-02       2.367249457769e+03 
       1.179423842689e-02       2.374821173326e+03 
       1.192251170728e-02       2.382137419844e+03 
       1.205082219499e-02       2.389203239296e+03 
       1.217916964542e-02       2.396061064229e+03 
       1.230755384632e-02       2.402631597541e+03 
       1.243597461667e-02       2.408959200146e+03 
       1.256443180566e-02       2.415047617682e+03 
       1.269292529182e-02       2.420897836491e+03 
       1.282145498205e-02       2.426533404309e+03 
       1.295002081092e-02       2.431919823788e+03 
       1.307862273985e-02       2.437078672712e+03 
       1.320726075646e-02       2.442011757475e+03 
       1.333593487393e-02       2.446719727310e+03 
       1.346464513038e-02       2.451244395511e+03 
       1.359339158841e-02       2.455517184956e+03 
       1.372217433452e-02       2.459574418135e+03 
       1.385099347870e-02       2.463420940204e+03 
       1.397984915403e-02       2.467058206770e+03 
       1.410874151627e-02       2.470503340091e+03 
       1.423767074356e-02       2.473730553345e+03 
       1.436663703609e-02       2.476757075463e+03 
       1.449564061583e-02       2.479582589630e+03 
       1.462468172631e-02       2.482214019523e+03 
       1.475376063238e-02       2.484650135687e+03 
       1.477104874446e-02       2.484962166587e+03 
       1.488287762004e-02       2.486923114374e+03 
       1.501203299630e-02       2.488981305800e+03 
       1.514122708904e-02       2.490852773114e+03 
       1.527046024689e-02       2.492539324518e+03 
       1.539973283917e-02       2.494045284184e+03 
       1.552904525583e-02       2.495370749198e+03 
       1.565839790740e-02       2.496534167189e+03 
       1.578779122500e-02       2.497510000406e+03 
       1.591722566034e-02       2.498313021446e+03 
       1.604670168574e-02       2.498946598474e+03 
       1.617621979418e-02       2.499412167824e+03 
       1.630578049940e-02       2.499713956161e+03 
       1.643538433593e-02       2.499874098426e+03 
       1.656503185925e-02       2.499851385155e+03 
       1.669472364589e-02       2.499669287247e+03 
       1.682446029356e-02       2.499332154197e+03 
       1.695424242133e-02       2.498840029235e+03 
       1.708407066982e-02       2.498194869853e+03 
       1.721394570136e-02       2.497401252816e+03 
       1.734386820021e-02       2.496468748824e+03 
       1.747383887281e-02       2.495380868509e+03 
       1.760385844800e-02       2.494148293015e+03 
       1.773392767731e-02       2.492775411319e+03 
       1.786404733521e-02       2.491261209628e+03 
       1.799421821941e-02       2.489611181908e+03 
       1.812444115118e-02       2.487824364393e+03 
       1.825471697569e-02       2.485924219698e+03 
       1.838504656233e-02       2.483872343455e+03 
       1.851543080508e-02       2.481692182086e+03 
       1.864587062289e-02       2.479382758258e+03 
       1.877636696009e-02       2.476948811139e+03 
       1.890692078678e-02       2.474390532985e+03 
       1.903753309926e-02       2.471710882387e+03 
       1.916820492051e-02       2.468910662781e+03 
       1.929893730060e-02       2.466002840848e+03 
       1.942973131724e-02       2.462968417471e+03 
       1.956058807622e-02       2.459821165209e+03 
       1.969150871198e-02       2.456559962297e+03 
       1.982249438809e-02       2.453189821492e+03 
       1.995354629789e-02       2.449709445076e+03 
       2.008466566498e-02       2.446123692213e+03 
       2.021585374388e-02       2.442449133213e+03 
       2.034711182063e-02       2.438654336306e+03 
       2.047844121341e-02       2.434758368338e+03 
       2.060984327324e-02       2.430762129368e+03 
       2.074131938462e-02       2.426668743122e+03 
       2.087287096624e-02       2.422478455806e+03 
       2.100449947177e-02       2.418194060758e+03 
       2.113620639050e-02       2.413816425557e+03 
       2.126799324822e-02       2.409348083559e+03 
       2.139986160796e-02       2.404798460871e+03 
       2.153181307082e-02       2.400153232635e+03 
       2.166384927685e-02       2.395421501791e+03 
       2.179597190589e-02       2.390605250800e+03 
       2.192818267851e-02       2.385706711651e+03 
       2.206048335692e-02       2.380726404809e+03 
       2.219287574594e-02       2.375666458263e+03 
       2.232536169399e-02       2.370529124336e+03 
       2.245794309414e-02       2.365330202846e+03 
       2.259062188511e-02       2.360041595784e+03 
       2.272340005243e-02       2.354678813648e+03 
       2.285627962949e-02       2.349245201759e+03 
       2.298926269876e-02       2.343740144403e+03 
       2.312235139297e-02       2.338167268111e+03 
       2.325554789630e-02       2.332525980579e+03 
       2.338885444571e-02       2.326818811008e+03 
       2.352227333222e-02       2.321047825767e+03 
       2.365580690226e-02       2.315213093387e+03 
       2.378945755909e-02       2.309324088096e+03 
       2.392322776421e-02       2.303368109755e+03 
       2.405712003888e-02       2.297352350304e+03 
       2.419113696561e-02       2.291280000645e+03 
       2.432528118979e-02       2.285150476009e+03 
       2.445955542130e-02       2.278966085131e+03 
       2.459396243619e-02       2.272729038341e+03 
       2.472850507846e-02       2.266439040723e+03 
       2.486318626180e-02       2.260098445118e+03 
       2.499800897150e-02       2.253721771174e+03 
       2.513297626637e-02       2.247282734034e+03 
       2.526809128067e-02       2.240797320359e+03 
       2.540335722625e-02       2.234265160034e+03 
       2.553877739456e-02       2.227688461610e+03 
       2.567435515896e-02       2.221068605352e+03 
       2.581009397687e-02       2.214406330719e+03 
       2.594599739220e-02       2.207702679412e+03 
       2.608206903774e-02       2.200959636927e+03 
       2.621831263767e-02       2.194177023230e+03 
       2.635473201013e-02       2.187363772805e+03 
       2.649133106997e-02       2.180507568053e+03 
       2.662811383145e-02       2.173615591043e+03 
       2.676508441118e-02       2.166689957854e+03 
       2.690224703107e-02       2.159730304191e+03 
       2.703960602143e-02       2.152738608311e+03 
       2.717716582417e-02       2.145716201402e+03 
       2.731493099611e-02       2.138663598980e+03 
       2.745290621241e-02       2.131581454639e+03 
       2.759109627017e-02       2.124471969173e+03 
       2.772950609207e-02       2.117335041358e+03 
       2.786814073027e-02       2.110184228947e+03 
       2.800700537035e-02       2.102996653266e+03 
       2.814610533543e-02       2.095784363143e+03 
       2.828544609051e-02       2.088548907728e+03 
       2.842503324688e-02       2.081291481689e+03 
       2.856487256677e-02       2.074012570153e+03 
       2.870496996814e-02       2.066712764414e+03 
       2.884533152971e-02       2.059393952360e+03 
       2.898596349613e-02       2.052055734444e+03 
       2.912687228339e-02       2.044699600919e+03 
       2.926806448448e-02       2.037326916734e+03 
       2.940954687519e-02       2.029942452873e+03 
       2.955132642023e-02       2.022537520584e+03 
       2.969341027959e-02       2.015117754903e+03 
       2.983580581513e-02       2.007684433982e+03 
       2.997852059747e-02       2.000237241170e+03 
       3.012156241320e-02       1.992778132273e+03 
       3.026493927233e-02       1.985307018933e+03 
       3.040865941613e-02       1.977824464390e+03 
       3.055273132528e-02       1.970332036495e+03 
       3.069716372838e-02       1.962829811933e+03 
       3.084196561081e-02       1.955318162348e+03 
       3.098714622408e-02       1.947808533745e+03 
       3.113271509548e-02       1.940280929606e+03 
       3.127868203824e-02       1.932746339734e+03 
       3.142505716216e-02       1.925204981468e+03 
       3.157185088471e-02       1.917658187404e+03 
       3.171907394264e-02       1.910105574809e+03 
       3.186673740417e-02       1.902548043392e+03 
       3.201485268176e-02       1.894986686385e+03 
       3.216343154543e-02       1.887421205174e+03 
       3.231248613686e-02       1.879852443479e+03 
       3.246202898400e-02       1.872281355864e+03 
       3.261207301662e-02       1.864707405863e+03 
       3.276263158241e-02       1.857136453391e+03 
       3.291371846410e-02       1.849559441441e+03 
       3.306534789733e-02       1.841981947038e+03 
       3.321753458944e-02       1.834403459052e+03 
       3.337029373934e-02       1.826825037344e+03 
       3.352364105832e-02       1.819247052474e+03 
       3.367759279203e-02       1.811669263145e+03 
       3.383216574362e-02       1.804092578586e+03 
       3.398737729812e-02       1.796517588948e+03 
       3.414324544822e-02       1.788943664702e+03 
       3.429978882142e-02       1.781371864199e+03 
       3.445702670875e-02       1.773802026299e+03 
       3.461497909508e-02       1.766243713832e+03 
       3.477366669120e-02       1.758679307174e+03 
       3.493311096779e-02       1.751117928772e+03 
       3.509333419130e-02       1.743559926995e+03 
       3.525435946209e-02       1.736004938815e+03 
       3.541621075471e-02       1.728453532376e+03 
       3.557891296079e-02       1.720906161991e+03 
       3.574249193448e-02       1.713362227620e+03 
       3.590697454071e-02       1.705822387468e+03 
       3.607238870657e-02       1.698286859228e+03 
       3.623876347590e-02       1.690755037744e+03 
       3.640612906749e-02       1.683227614238e+03 
       3.657451693699e-02       1.675708299006e+03 
       3.674395984303e-02       1.668189713815e+03 
       3.691449191776e-02       1.660675082801e+03 
       3.708614874212e-02       1.653164729267e+03 
       3.725896742642e-02       1.645658961132e+03 
       3.743298669647e-02       1.638157044593e+03 
       3.760824698590e-02       1.630659275597e+03 
       3.778479053499e-02       1.623165791648e+03 
       3.796266149686e-02       1.615675730495e+03 
       3.814190605139e-02       1.608189555934e+03 
       3.832257252774e-02       1.600706787608e+03 
       3.850471153620e-02       1.593227717984e+03 
       3.868837611015e-02       1.585751291300e+03 
       3.887362185925e-02       1.578284786791e+03 
       3.906050713476e-02       1.570814060335e+03 
       3.924909320817e-02       1.563345280866e+03 
       3.943944446458e-02       1.555878504308e+03 
       3.963162861209e-02       1.548413338167e+03 
       3.982571690906e-02       1.540948910245e+03 
       4.002178441074e-02       1.533485144934e+03 
       4.021991023765e-02       1.526021547943e+03 
       4.042017786772e-02       1.518557628769e+03 
       4.062267545486e-02       1.511092363254e+03 
       4.082749617690e-02       1.503625873517e+03 
       4.103473861609e-02       1.496159997411e+03 
       4.124450717579e-02       1.488687934337e+03 
       4.145691253770e-02       1.481212423146e+03 
       4.167207216420e-02       1.473732104136e+03 
       4.189011085128e-02       1.466246436570e+03 
       4.211116133822e-02       1.458754557634e+03 
       4.233536498096e-02       1.451255078504e+03 
       4.256287249737e-02       1.443747185448e+03 
       4.279384479350e-02       1.436230041533e+03 
       4.302845388159e-02       1.428701970104e+03 
       4.326688390208e-02       1.421161714875e+03 
       4.350933226387e-02       1.413613851647e+03 
       4.375601091931e-02       1.406045351868e+03 
       4.400714779323e-02       1.398460543323e+03 
       4.426298838837e-02       1.390857378272e+03 
       4.452379759359e-02       1.383234150872e+03 
       4.478986172569e-02       1.375588838601e+03 
       4.506149084127e-02       1.367919539933e+03 
       4.533902136171e-02       1.360223530604e+03 
       4.562281906239e-02       1.352498851175e+03 
       4.591328248704e-02       1.344742219129e+03 
       4.621084685992e-02       1.336953900958e+03 
       4.651598858342e-02       1.329125112978e+03 
       4.682923042617e-02       1.321255157728e+03 
       4.715114752912e-02       1.313340447053e+03 
       4.748237438438e-02       1.305376352980e+03 
       4.782361297567e-02       1.297358865224e+03 
       4.817564231163e-02       1.289282295154e+03 
       4.853932963698e-02       1.281141670061e+03 
       4.891564367331e-02       1.272934610278e+03 
       4.930567032658e-02       1.264645754647e+03 
       4.971063140598e-02       1.256271156322e+03 
       5.013190703597e-02       1.247802167179e+03 
       5.057106261766e-02       1.239228302715e+03 
       5.102988141857e-02       1.230538192437e+03 
       5.151040415286e-02       1.221717804231e+03 
       5.201497727386e-02       1.212753584585e+03 
       5.254631215256e-02       1.203622505550e+03 
       5.310755787590e-02       1.194304273446e+03 
       5.370239107420e-02       1.184772081473e+03 
       5.433512696257e-02       1.174992975328e+03 
       5.501085658806e-02       1.164929943377e+03 
       5.573561593021e-02       1.154525307717e+03 
       5.651659258902e-02       1.143718225308e+03 
       5.736237443447e-02       1.132425965457e+03 
       5.828324004015e-02       1.120542459537e+03 
       5.929147969118e-02       1.107922116548e+03 
