# Matter power spectrum P(k) at redshift z=3
# for k=1.04134e-05 to 1.4771 h/Mpc,
# number of wavenumbers equal to 614
#    1:k (h/Mpc)              2:P (Mpc/h)^3        
       1.041341639285e-05       4.811720769625e+00 
       2.327042171641e-05       1.047342279374e+01 
       3.617242813832e-05       1.604690269496e+01 
       4.915402023115e-05       2.158779892159e+01 
       6.225035209231e-05       2.712842336453e+01 
       7.549745964336e-05       3.269339150511e+01 
       8.893258287439e-05       3.830401490947e+01 
       1.025945023052e-04       4.398010907571e+01 
       1.165238939670e-04       4.974092729932e+01 
       1.307637072433e-04       5.560573255198e+01 
       1.453595699131e-04       6.159420019060e+01 
       1.603602246847e-04       6.772673617095e+01 
       1.758180013342e-04       7.402475236722e+01 
       1.917893282013e-04       8.051092121333e+01 
       2.083352861545e-04       8.720942217856e+01 
       2.255222070858e-04       9.414618715639e+01 
       2.434223173661e-04       1.013491482878e+02 
       2.621144242800e-04       1.088484893726e+02 
       2.816846399840e-04       1.166770316692e+02 
       3.022271326848e-04       1.248699602998e+02 
       3.238448881340e-04       1.334639757255e+02 
       3.466504557910e-04       1.425042889986e+02 
       3.707666427421e-04       1.520342248033e+02 
       3.963271044220e-04       1.621023332551e+02 
       4.234767643783e-04       1.727607060452e+02 
       4.523719762441e-04       1.840648823448e+02 
       4.831803210321e-04       1.960735872608e+02 
       5.160799142935e-04       2.088470403024e+02 
       5.512580845623e-04       2.224509522617e+02 
       5.889092825176e-04       2.369485049302e+02 
       6.292320966663e-04       2.524004035371e+02 
       6.724252938746e-04       2.688739307987e+02 
       7.186828782417e-04       2.864233290767e+02 
       7.681882716622e-04       3.050987477283e+02 
       8.211078579216e-04       3.249615738117e+02 
       8.775842821015e-04       3.459965493587e+02 
       9.377300296499e-04       3.682382952344e+02 
       1.001621888673e-03       3.917073240237e+02 
       1.069296891262e-03       4.163459691278e+02 
       1.140750216732e-03       4.421012997375e+02 
       1.215935329537e-03       4.689947561572e+02 
       1.294766354091e-03       4.969220466887e+02 
       1.377122414638e-03       5.258228448353e+02 
       1.462853449349e-03       5.555348801172e+02 
       1.477104874446e-03       5.604497523158e+02 
       1.551786885706e-03       5.860642108978e+02 
       1.643734551712e-03       6.172549628443e+02 
       1.738499278605e-03       6.489779903211e+02 
       1.835880791120e-03       6.811928306625e+02 
       1.935680641929e-03       7.137587132520e+02 
       2.037706095352e-03       7.466344630286e+02 
       2.141772982368e-03       7.797092225420e+02 
       2.247707627289e-03       8.129151542334e+02 
       2.355347988681e-03       8.461570515922e+02 
       2.464544170867e-03       8.793895100435e+02 
       2.575158456501e-03       9.125148918266e+02 
       2.687064993601e-03       9.455458885697e+02 
       2.800149248285e-03       9.783947264842e+02 
       2.914307311625e-03       1.011056828622e+03 
       3.029445127977e-03       1.043430002073e+03 
       3.145477694107e-03       1.075556601165e+03 
       3.262328263719e-03       1.107381456058e+03 
       3.379927580545e-03       1.138892249598e+03 
       3.498213154441e-03       1.170018273720e+03 
       3.617128588596e-03       1.200808265002e+03 
       3.736622961449e-03       1.231231835196e+03 
       3.856650263801e-03       1.261255220510e+03 
       3.977168889580e-03       1.290886973701e+03 
       4.098141177433e-03       1.320121900540e+03 
       4.219532999635e-03       1.348939309848e+03 
       4.341313394425e-03       1.377340151813e+03 
       4.463454237843e-03       1.405312550948e+03 
       4.585929951218e-03       1.432873447070e+03 
       4.708717240641e-03       1.459985408487e+03 
       4.831794865030e-03       1.486664233924e+03 
       4.955143429673e-03       1.511922826309e+03 
       5.078745202400e-03       1.542679294417e+03 
       5.202583949847e-03       1.564806743803e+03 
       5.326644791538e-03       1.591037193364e+03 
       5.450914069723e-03       1.611239312432e+03 
       5.575379233204e-03       1.644662341467e+03 
       5.700028733518e-03       1.663821645554e+03 
       5.824851932088e-03       1.681509829412e+03 
       5.949839017081e-03       1.707199745684e+03 
       6.074980928875e-03       1.725205069321e+03 
       6.200269293172e-03       1.756747939794e+03 
       6.325696360890e-03       1.774328012885e+03 
       6.451254954091e-03       1.797858660078e+03 
       6.576938417273e-03       1.814899156052e+03 
       6.702740573446e-03       1.831970925966e+03 
       6.828655684464e-03       1.860195376886e+03 
       6.954678415165e-03       1.877162475886e+03 
       7.080803800918e-03       1.898546088504e+03 
       7.207027218197e-03       1.914501412104e+03 
       7.333344357894e-03       1.930668921936e+03 
       7.459751201076e-03       1.955495437609e+03 
       7.586243996923e-03       1.970582612163e+03 
       7.712819242660e-03       1.986279534469e+03 
       7.839473665248e-03       2.005133985396e+03 
       7.966204204685e-03       2.019645456080e+03 
       8.093007998748e-03       2.034123048875e+03 
       8.219882369041e-03       2.055264344976e+03 
       8.346824808225e-03       2.069384851696e+03 
       8.473832968310e-03       2.082871610776e+03 
       8.600904649922e-03       2.099607788549e+03 
       8.728037792447e-03       2.112717591934e+03 
       8.855230464970e-03       2.125566088574e+03 
       8.982480857949e-03       2.138242754181e+03 
       9.109787275538e-03       2.155745703227e+03 
       9.237148128526e-03       2.167934164318e+03 
       9.364561927815e-03       2.179712532037e+03 
       9.492027278411e-03       2.193516283587e+03 
       9.619542873861e-03       2.204897304878e+03 
       9.747107491128e-03       2.215936806840e+03 
       9.874719985833e-03       2.226692498680e+03 
       1.000237928787e-02       2.241064934556e+03 
       1.013008439732e-02       2.251375000769e+03 
       1.025783438071e-02       2.261402870031e+03 
       1.038562836747e-02       2.271143312359e+03 
       1.051346554673e-02       2.282254595850e+03 
       1.064134516430e-02       2.291385116561e+03 
       1.076926651983e-02       2.300390939575e+03 
       1.089722896430e-02       2.309001141272e+03 
       1.102523189752e-02       2.320350906156e+03 
       1.115327476593e-02       2.328534743292e+03 
       1.128135706051e-02       2.336491998611e+03 
       1.140947831485e-02       2.344204047471e+03 
       1.153763810331e-02       2.351656710176e+03 
       1.166583603937e-02       2.359958023436e+03 
       1.179407177406e-02       2.366905128616e+03 
       1.192234499452e-02       2.373630716865e+03 
       1.205065542263e-02       2.380121444087e+03 
       1.217900281377e-02       2.388552838094e+03 
       1.230738695563e-02       2.394541676799e+03 
       1.243580766714e-02       2.400288687733e+03 
       1.256426479749e-02       2.405844758239e+03 
       1.269275822512e-02       2.411095375618e+03 
       1.282128785695e-02       2.417160438509e+03 
       1.294985362747e-02       2.422035263006e+03 
       1.307845549808e-02       2.426718629257e+03 
       1.320709345638e-02       2.431162123576e+03 
       1.333576751549e-02       2.435243077306e+03 
       1.346447771353e-02       2.441070911805e+03 
       1.359322411304e-02       2.444845251799e+03 
       1.372200680050e-02       2.448380772480e+03 
       1.385082588588e-02       2.451748899519e+03 
       1.397968150222e-02       2.454901085660e+03 
       1.410857380526e-02       2.458628158936e+03 
       1.423750297311e-02       2.461399683853e+03 
       1.436646920591e-02       2.464007176171e+03 
       1.449547272563e-02       2.466292688067e+03 
       1.462451377575e-02       2.468507383274e+03 
       1.475359262110e-02       2.470477880523e+03 
       1.477104874446e-02       2.470743191452e+03 
       1.488270954767e-02       2.473697587452e+03 
       1.501186486242e-02       2.475357979113e+03 
       1.514105889322e-02       2.476810613962e+03 
       1.527029198865e-02       2.478026776580e+03 
       1.539956451803e-02       2.479107225654e+03 
       1.552887687126e-02       2.479940624645e+03 
       1.565822945886e-02       2.481385953113e+03 
       1.578762271193e-02       2.481947079042e+03 
       1.591705708212e-02       2.482304761687e+03 
       1.604653304176e-02       2.482511314077e+03 
       1.617605108379e-02       2.482526631445e+03 
       1.630561172191e-02       2.482461160860e+03 
       1.643521549064e-02       2.483395140477e+03 
       1.656486294542e-02       2.482975367785e+03 
       1.669455466276e-02       2.482353013450e+03 
       1.682429124034e-02       2.481661719067e+03 
       1.695407329722e-02       2.480778747787e+03 
       1.708390147396e-02       2.479695649470e+03 
       1.721377643288e-02       2.478550436949e+03 
       1.734369885821e-02       2.477759180559e+03 
       1.747366945636e-02       2.476297969830e+03 
       1.760368895615e-02       2.474644254174e+03 
       1.773375810907e-02       2.472927078516e+03 
       1.786387768955e-02       2.470976144548e+03 
       1.799404849529e-02       2.468987460353e+03 
       1.812427134752e-02       2.466795463188e+03 
       1.825454709138e-02       2.465585050251e+03 
       1.838487659622e-02       2.463138379054e+03 
       1.851526075600e-02       2.460632964233e+03 
       1.864570048964e-02       2.457929567358e+03 
       1.877619674142e-02       2.455151799782e+03 
       1.890675048142e-02       2.452205071389e+03 
       1.903736270590e-02       2.449179711888e+03 
       1.916803443781e-02       2.445992175368e+03 
       1.929876672719e-02       2.443258330010e+03 
       1.942956065169e-02       2.439838988316e+03 
       1.956041731709e-02       2.436382406390e+03 
       1.969133785777e-02       2.432725844552e+03 
       1.982232343729e-02       2.429044832533e+03 
       1.995337524892e-02       2.425178734056e+03 
       2.008449451625e-02       2.421281057694e+03 
       2.021568249373e-02       2.418179131683e+03 
       2.034694046738e-02       2.414044298565e+03 
       2.047826975534e-02       2.409825489924e+03 
       2.060967170856e-02       2.405479906725e+03 
       2.074114771152e-02       2.401083483809e+03 
       2.087269918287e-02       2.396551292811e+03 
       2.100432757621e-02       2.391949375269e+03 
       2.113603438081e-02       2.387234158524e+03 
       2.126782112240e-02       2.382445975651e+03 
       2.139968936395e-02       2.378014001625e+03 
       2.153164070652e-02       2.373066286942e+03 
       2.166367679012e-02       2.368015402048e+03 
       2.179579929452e-02       2.362873541689e+03 
       2.192800994025e-02       2.357681132567e+03 
       2.206031048946e-02       2.352382016696e+03 
       2.219270274691e-02       2.346999317700e+03 
       2.232518856097e-02       2.341574976672e+03 
       2.245776982464e-02       2.336885599594e+03 
       2.259044847660e-02       2.331323392811e+03 
       2.272322650230e-02       2.325646587182e+03 
       2.285610593508e-02       2.319952958452e+03 
       2.298908885734e-02       2.314137725657e+03 
       2.312217740173e-02       2.308308062830e+03 
       2.325537375239e-02       2.302360869067e+03 
       2.338868014620e-02       2.296357359065e+03 
       2.352209887410e-02       2.290327762000e+03 
       2.365563228246e-02       2.284203008699e+03 
       2.378928277446e-02       2.278412455510e+03 
       2.392305281152e-02       2.272210298653e+03 
       2.405694491482e-02       2.265904929201e+03 
       2.419096166680e-02       2.259594820081e+03 
       2.432510571276e-02       2.253178180672e+03 
       2.445937976250e-02       2.246710313541e+03 
       2.459378659199e-02       2.240241450606e+03 
       2.472832904511e-02       2.233669842783e+03 
       2.486301003549e-02       2.227089467830e+03 
       2.499783254832e-02       2.221179929227e+03 
       2.513279964230e-02       2.214479170087e+03 
       2.526791445162e-02       2.207776545491e+03 
       2.540318018799e-02       2.200984572084e+03 
       2.553860014279e-02       2.194158788881e+03 
       2.567417768923e-02       2.187314899469e+03 
       2.580991628467e-02       2.180420423454e+03 
       2.594581947288e-02       2.173471875511e+03 
       2.608189088653e-02       2.166517394741e+03 
       2.621813424969e-02       2.159480189516e+03 
       2.635455338037e-02       2.152784212047e+03 
       2.649115219330e-02       2.145716957425e+03 
       2.662793470260e-02       2.138593237782e+03 
       2.676490502475e-02       2.131476957585e+03 
       2.690206738153e-02       2.124281506584e+03 
       2.703942610310e-02       2.117065309281e+03 
       2.717698563122e-02       2.109842448105e+03 
       2.731475052256e-02       2.102582233559e+03 
       2.745272545213e-02       2.095270738758e+03 
       2.759091521686e-02       2.087972991305e+03 
       2.772932473929e-02       2.080624895075e+03 
       2.786795907138e-02       2.073895635478e+03 
       2.800682339854e-02       2.066530851701e+03 
       2.814592304372e-02       2.059120857860e+03 
       2.828526347173e-02       2.051688127756e+03 
       2.842485029367e-02       2.044253729076e+03 
       2.856468927156e-02       2.036795352131e+03 
       2.870478632317e-02       2.029298303335e+03 
       2.884514752700e-02       2.021821422390e+03 
       2.898577912748e-02       2.014289513290e+03 
       2.912668754039e-02       2.006750382238e+03 
       2.926787935847e-02       1.999224404775e+03 
       2.940936135727e-02       1.991940284406e+03 
       2.955114050126e-02       1.984366919356e+03 
       2.969322395016e-02       1.976777023893e+03 
       2.983561906558e-02       1.969197163403e+03 
       2.997833341786e-02       1.961572885258e+03 
       3.012137479331e-02       1.953974114525e+03 
       3.026475120163e-02       1.946350982791e+03 
       3.040847088380e-02       1.938697703022e+03 
       3.055254232018e-02       1.931059165796e+03 
       3.069697423904e-02       1.923411858360e+03 
       3.084177562543e-02       1.915736360133e+03 
       3.098695573051e-02       1.908625031729e+03 
       3.113252408119e-02       1.900951451520e+03 
       3.127849049034e-02       1.893279757554e+03 
       3.142486506737e-02       1.885591785722e+03 
       3.157165822933e-02       1.877930363692e+03 
       3.171888071256e-02       1.870233383166e+03 
       3.186654358484e-02       1.862535293453e+03 
       3.201465825817e-02       1.854860565171e+03 
       3.216323650212e-02       1.847165537704e+03 
       3.231229045785e-02       1.839467215919e+03 
       3.246183265283e-02       1.831791362420e+03 
       3.261187601626e-02       1.824082809548e+03 
       3.276243389532e-02       1.816634964795e+03 
       3.291352007215e-02       1.808935019965e+03 
       3.306514878178e-02       1.801259852505e+03 
       3.321733473094e-02       1.793561339720e+03 
       3.337009311790e-02       1.785875207766e+03 
       3.352343965325e-02       1.778194538933e+03 
       3.367739058195e-02       1.770498597475e+03 
       3.383196270640e-02       1.762813546991e+03 
       3.398717341088e-02       1.755153077609e+03 
       3.414304068726e-02       1.747465946199e+03 
       3.429958316221e-02       1.739795036020e+03 
       3.445682012587e-02       1.732117212771e+03 
       3.461477156221e-02       1.724917589341e+03 
       3.477345818105e-02       1.717258527900e+03 
       3.493290145205e-02       1.709607758863e+03 
       3.509312364064e-02       1.701973573663e+03 
       3.525414784604e-02       1.694326016476e+03 
       3.541599804166e-02       1.686686509955e+03 
       3.557869911793e-02       1.679071400480e+03 
       3.574227692769e-02       1.671439562266e+03 
       3.590675833456e-02       1.663820448354e+03 
       3.607217126419e-02       1.656217202628e+03 
       3.623854475898e-02       1.648599346747e+03 
       3.640590903612e-02       1.640996786544e+03 
       3.657429554965e-02       1.633606609968e+03 
       3.674373705646e-02       1.626032116542e+03 
       3.691426768686e-02       1.618442238055e+03 
       3.708592301988e-02       1.610859496002e+03 
       3.725874016380e-02       1.603292684634e+03 
       3.743275784229e-02       1.595722149052e+03 
       3.760801648669e-02       1.588159463049e+03 
       3.778455833488e-02       1.580618090327e+03 
       3.796242753744e-02       1.573060704939e+03 
       3.814167027156e-02       1.565520070163e+03 
       3.832233486352e-02       1.557970508465e+03 
       3.850447192057e-02       1.550449682154e+03 
       3.868813447288e-02       1.542909278094e+03 
       3.887337812668e-02       1.535759039794e+03 
       3.906026122954e-02       1.528246128532e+03 
       3.924884504907e-02       1.520723595198e+03 
       3.943919396620e-02       1.513211986988e+03 
       3.963137568462e-02       1.505710460459e+03 
       3.982546145792e-02       1.498195444147e+03 
       4.002152633629e-02       1.490686137023e+03 
       4.021964943480e-02       1.483181875065e+03 
       4.041991422553e-02       1.475682537840e+03 
       4.062240885615e-02       1.468167784614e+03 
       4.082722649777e-02       1.460669173430e+03 
       4.103446572536e-02       1.453321690093e+03 
       4.124423093448e-02       1.445808428247e+03 
       4.145663279841e-02       1.438309494672e+03 
       4.167178877040e-02       1.430791627536e+03 
       4.188982363661e-02       1.423274500550e+03 
       4.211087012560e-02       1.415760860521e+03 
       4.233506958172e-02       1.408227454692e+03 
       4.256257271023e-02       1.400683459594e+03 
       4.279354040343e-02       1.393145817684e+03 
       4.302814465857e-02       1.385589512608e+03 
       4.326656959972e-02       1.378013805184e+03 
       4.350901261782e-02       1.370741870690e+03 
       4.375568564555e-02       1.363145779863e+03 
       4.400681658609e-02       1.355544975896e+03 
       4.426265091835e-02       1.347920167073e+03 
       4.452345350488e-02       1.340276162320e+03 
       4.478951063334e-02       1.332608392423e+03 
       4.506113232804e-02       1.324928045385e+03 
       4.533865497444e-02       1.317207721010e+03 
       4.562244430789e-02       1.309472556688e+03 
       4.591289882736e-02       1.301685992626e+03 
       4.621045370695e-02       1.294020206218e+03 
       4.651558529265e-02       1.286183279043e+03 
       4.682881628950e-02       1.278283776141e+03 
       4.715072176650e-02       1.270362052069e+03 
       4.748193613410e-02       1.262377306501e+03 
       4.782316128298e-02       1.254354719364e+03 
       4.817517611543e-02       1.246256599005e+03 
       4.853884775411e-02       1.238110161988e+03 
       4.891514477994e-02       1.230120298910e+03 
       4.930515293612e-02       1.221827602441e+03 
       4.971009384271e-02       1.213439186548e+03 
       5.013134740329e-02       1.204962183417e+03 
       5.057047875996e-02       1.196372529031e+03 
       5.102927087491e-02       1.187678455800e+03 
       5.150976410065e-02       1.178844319230e+03 
       5.201430446000e-02       1.169975480326e+03 
       5.254560280885e-02       1.160834298627e+03 
       5.310680761483e-02       1.151504897595e+03 
       5.370159476026e-02       1.141967194991e+03 
       5.433427855303e-02       1.132182618436e+03 
       5.500994893646e-02       1.122292776028e+03 
       5.573464054486e-02       1.111888690329e+03 
       5.651553933959e-02       1.101085035074e+03 
       5.736123120304e-02       1.089799518092e+03 
       5.828199232210e-02       1.078015507799e+03 
       5.929011017201e-02       1.065422728677e+03 
