# dimensionless total [l(l+1)/2pi] C_l's
# for l=2 to 3100, i.e. number of multipoles equal to 3099
#
# -> if you prefer output in CAMB/HealPix/LensPix units/order, set 'format' to 'camb' in input file
# -> if you don't want to see such a header, set 'headers' to 'no' in input file
# -> for CMB lensing (phi), these are C_l^phi-phi for the lensing potential.
#    Remember the conversion factors:
#    C_l^dd (deflection) = l(l+1) C_l^phi-phi
#    C_l^gg (shear/convergence) = 1/4 (l(l+1))^2 C_l^phi-phi
#
# 1:l     2:TT                     3:EE                     4:TE                     5:BB                     6:phiphi                 7:TPhi                   8:Ephi               
    2       2.083877402493e-10       4.435192277815e-15       3.510853295176e-13       0.000000000000e+00       5.646383072191e-09       6.382783083801e-10      -1.800739769524e-12 
    3       1.957807798391e-10       5.923458419153e-15       3.991613823258e-13       0.000000000000e+00       3.418811171643e-09       4.781552171492e-10      -1.393551459396e-12 
    4       1.825749473853e-10       5.373347449975e-15       3.840955025825e-13       0.000000000000e+00       2.362482243036e-09       3.783996367063e-10      -9.318287164236e-13 
    5       1.715876816746e-10       3.774737997448e-15       3.407701611883e-13       0.000000000000e+00       1.759061197711e-09       3.103642095553e-10      -5.293820297859e-13 
    6       1.625289138322e-10       2.210008429271e-15       2.886552918219e-13       0.000000000000e+00       1.373512549041e-09       2.610273985726e-10      -2.211264506461e-13 
    7       1.558210332903e-10       1.212029421103e-15       2.392105926133e-13       0.000000000000e+00       1.108905392813e-09       2.237636337683e-10      -1.328976697677e-14 
    8       1.508344316097e-10       7.611252040894e-16       1.976736560561e-13       0.000000000000e+00       9.176422721740e-10       1.947300453940e-10       1.036142717387e-13 
    9       1.465896319595e-10       6.027756174217e-16       1.657365746487e-13       0.000000000000e+00       7.739717776243e-10       1.714038705897e-10       1.479999764960e-13 
   10       1.435861906039e-10       5.220266559731e-16       1.434058586154e-13       0.000000000000e+00       6.628793690566e-10       1.522557664994e-10       1.422978210434e-13 
   11       1.413683037566e-10       4.379104536184e-16       1.297482234911e-13       0.000000000000e+00       5.656360490964e-10       1.365842943525e-10       1.090398492853e-13 
   12       1.393064314512e-10       3.607875428853e-16       1.233439736267e-13       0.000000000000e+00       4.958390534092e-10       1.230786036244e-10       6.642806597269e-14 
   13       1.378841107235e-10       3.173936793538e-16       1.228578441586e-13       0.000000000000e+00       4.385653921088e-10       1.114434432450e-10       2.768447395724e-14 
   14       1.370949550336e-10       3.120539202410e-16       1.267747182797e-13       0.000000000000e+00       3.906347488880e-10       1.014229504862e-10       7.212539269535e-16 
   15       1.363331005997e-10       3.317811063275e-16       1.334704047259e-13       0.000000000000e+00       3.502182615134e-10       9.271077608418e-11      -1.276753106205e-14 
   16       1.359811477586e-10       3.659216528760e-16       1.421111063559e-13       0.000000000000e+00       3.159315518552e-10       8.508171599866e-11      -1.422385362643e-14 
   17       1.363582128289e-10       4.137975669547e-16       1.518322096661e-13       0.000000000000e+00       2.863918165935e-10       7.852348726597e-11      -7.777068951707e-15 
   18       1.367855396246e-10       4.797071610358e-16       1.613112227584e-13       0.000000000000e+00       2.606846071231e-10       7.264224112748e-11       1.581780692284e-15 
   19       1.371718529646e-10       5.656522676161e-16       1.704587423122e-13       0.000000000000e+00       2.384500348299e-10       6.735977857765e-11       1.040192516948e-14 
   20       1.376488886556e-10       6.716513644357e-16       1.795958047195e-13       0.000000000000e+00       2.188433567942e-10       6.261694638672e-11       1.554717838534e-14 
   21       1.383601228387e-10       7.955712427845e-16       1.886195371675e-13       0.000000000000e+00       2.015527952337e-10       5.839305532707e-11       1.636921877262e-14 
   22       1.393787975465e-10       9.346207796876e-16       1.973148853335e-13       0.000000000000e+00       1.861571786234e-10       5.460661381781e-11       1.341925638140e-14 
   23       1.405576610412e-10       1.090631978786e-15       2.058304625415e-13       0.000000000000e+00       1.724585553285e-10       5.118631764794e-11       8.068601373828e-15 
   24       1.416819861060e-10       1.266744125371e-15       2.143872463311e-13       0.000000000000e+00       1.601596506846e-10       4.803109901282e-11       2.206490794058e-15 
   25       1.428962065014e-10       1.463679865676e-15       2.228107572179e-13       0.000000000000e+00       1.491139354050e-10       4.515010422983e-11      -2.780567119300e-15 
   26       1.443992188902e-10       1.681335836642e-15       2.307840115963e-13       0.000000000000e+00       1.391149013386e-10       4.255280140727e-11      -5.732032083919e-15 
   27       1.460499665893e-10       1.920284054138e-15       2.381377400093e-13       0.000000000000e+00       1.300514174620e-10       4.019069431617e-11      -6.587990397914e-15 
   28       1.476093176749e-10       2.181337329195e-15       2.447358546168e-13       0.000000000000e+00       1.217809665002e-10       3.798524676940e-11      -5.761887946711e-15 
   29       1.491118020297e-10       2.465708173409e-15       2.504475474593e-13       0.000000000000e+00       1.142654313337e-10       3.593248278941e-11      -3.859457100497e-15 
   30       1.506829931333e-10       2.774783053271e-15       2.551310938731e-13       0.000000000000e+00       1.074255172842e-10       3.403633462884e-11      -1.720124888068e-15 
   31       1.524315114656e-10       3.109924432772e-15       2.586613238439e-13       0.000000000000e+00       1.011237378695e-10       3.228605374438e-11      -2.362090668273e-16 
   32       1.543357438107e-10       3.472098836349e-15       2.610515221739e-13       0.000000000000e+00       9.532995276162e-11       3.067686955514e-11       3.668217228970e-16 
   33       1.563100510501e-10       3.862101282481e-15       2.623801496533e-13       0.000000000000e+00       9.000613681641e-11       2.919389175950e-11       7.704733151056e-17 
   34       1.582608632613e-10       4.280705836568e-15       2.627213737664e-13       0.000000000000e+00       8.508094854253e-11       2.781208249826e-11      -1.030367024157e-15 
   35       1.601920881521e-10       4.728880497201e-15       2.620042186021e-13       0.000000000000e+00       8.052993424256e-11       2.652071549298e-11      -2.597722525589e-15 
   36       1.621344984019e-10       5.207642869204e-15       2.601033836028e-13       0.000000000000e+00       7.631666239923e-11       2.530546405507e-11      -4.099576887526e-15 
   37       1.641152580198e-10       5.717975032697e-15       2.568937675822e-13       0.000000000000e+00       7.238673237361e-11       2.414804787725e-11      -5.023577383233e-15 
   38       1.661502001398e-10       6.260729583741e-15       2.523152662824e-13       0.000000000000e+00       6.873123235987e-11       2.305056458305e-11      -5.343922308246e-15 
   39       1.682480009814e-10       6.836688015228e-15       2.463287066595e-13       0.000000000000e+00       6.534030310842e-11       2.201816921956e-11      -5.202743634257e-15 
   40       1.704114120394e-10       7.446581425954e-15       2.388987016852e-13       0.000000000000e+00       6.218387710890e-11       2.105205377933e-11      -4.787360779229e-15 
   41       1.726376754058e-10       8.091059098096e-15       2.299979693433e-13       0.000000000000e+00       5.922247023488e-11       2.015003759348e-11      -4.300479262326e-15 
   42       1.749215068673e-10       8.770590353482e-15       2.196215906143e-13       0.000000000000e+00       5.644804868849e-11       1.930952268885e-11      -3.851577612188e-15 
   43       1.772519814738e-10       9.485524848430e-15       2.077776659847e-13       0.000000000000e+00       5.385347806818e-11       1.852483321725e-11      -3.535443452015e-15 
   44       1.796109762423e-10       1.023611240793e-14       1.944839990982e-13       0.000000000000e+00       5.142021051929e-11       1.778598903187e-11      -3.462917038585e-15 
   45       1.819796341285e-10       1.102259805531e-14       1.797557830810e-13       0.000000000000e+00       4.912502046282e-11       1.708187770686e-11      -3.724612161048e-15 
   46       1.843614300964e-10       1.184555373627e-14       1.635632198760e-13       0.000000000000e+00       4.696475979791e-11       1.641167594988e-11      -4.267122735583e-15 
   47       1.867650121722e-10       1.270563655912e-14       1.458619885182e-13       0.000000000000e+00       4.493745394475e-11       1.577628366234e-11      -4.981266723490e-15 
   48       1.891975839445e-10       1.360349732333e-14       1.266046224740e-13       0.000000000000e+00       4.303483929237e-11       1.517499592435e-11      -5.734763132621e-15 
   49       1.916647290594e-10       1.453978089085e-14       1.057402202967e-13       0.000000000000e+00       4.124189261620e-11       1.460537593371e-11      -6.370951458643e-15 
   50       1.941701744091e-10       1.551502560252e-14       8.321827787821e-14       0.000000000000e+00       3.954145676895e-11       1.406419659706e-11      -6.751599158459e-15 
   51       1.967154110890e-10       1.652932847872e-14       5.900208280158e-14       0.000000000000e+00       3.793068972562e-11       1.355086139383e-11      -6.901993358254e-15 
   52       1.992996671829e-10       1.758258978316e-14       3.305845558484e-14       0.000000000000e+00       3.640826701518e-11       1.306469243443e-11      -6.903019125190e-15 
   53       2.019197859199e-10       1.867460175954e-14       5.353852728133e-15       0.000000000000e+00       3.496945039999e-11       1.260386801420e-11      -6.851288913452e-15 
   54       2.045700472844e-10       1.980504425212e-14      -2.414572867299e-14       0.000000000000e+00       3.360585711800e-11       1.216534584197e-11      -6.859936736430e-15 
   55       2.072444506477e-10       2.097360214666e-14      -5.546952535743e-14       0.000000000000e+00       3.230806478971e-11       1.174579537649e-11      -7.030211320194e-15 
   56       2.099446353747e-10       2.218036189090e-14      -8.862459249943e-14       0.000000000000e+00       3.107471257570e-11       1.134484193758e-11      -7.356172377728e-15 
   57       2.126736154018e-10       2.342550580732e-14      -1.236090598262e-13       0.000000000000e+00       2.990525675153e-11       1.096249403050e-11      -7.797709898179e-15 
   58       2.154334098999e-10       2.470919926186e-14      -1.604169640384e-13       0.000000000000e+00       2.879721547166e-11       1.059816820625e-11      -8.307334810379e-15 
   59       2.182249607681e-10       2.603159103073e-14      -1.990381368872e-13       0.000000000000e+00       2.774604849204e-11       1.025065160597e-11      -8.829835452995e-15 
   60       2.210480501281e-10       2.739281366720e-14      -2.394580932508e-13       0.000000000000e+00       2.674503689274e-11       9.918064505311e-12      -9.301934044696e-15 
   61       2.239020368168e-10       2.879285864077e-14      -2.816595540452e-13       0.000000000000e+00       2.578717967235e-11       9.598432041054e-12      -9.666503127795e-15 
   62       2.267884456949e-10       3.023116817450e-14      -3.256276676108e-13       0.000000000000e+00       2.487165310160e-11       9.291634087627e-12      -9.919720968352e-15 
   63       2.297088157733e-10       3.170695202511e-14      -3.713457670461e-13       0.000000000000e+00       2.399859440499e-11       8.997828577485e-12      -1.007393926198e-14 
   64       2.326638771005e-10       3.321930109108e-14      -4.187937799312e-13       0.000000000000e+00       2.316715765957e-11       8.716863172092e-12      -1.014417326097e-14 
   65       2.356534942435e-10       3.476718380600e-14      -4.679481682769e-13       0.000000000000e+00       2.237545751136e-11       8.448257135204e-12      -1.014822022140e-14 
   66       2.386766097677e-10       3.634944253204e-14      -5.187818684734e-13       0.000000000000e+00       2.162051289180e-11       8.191183206149e-12      -1.010677785022e-14 
   67       2.417311877174e-10       3.796478995336e-14      -5.712642312392e-13       0.000000000000e+00       2.089819073415e-11       7.944449473100e-12      -1.004356275239e-14 
   68       2.448151968245e-10       3.961195378425e-14      -6.253657874373e-13       0.000000000000e+00       2.020432797745e-11       7.706843805351e-12      -9.980251502971e-15 
   69       2.479299178153e-10       4.129015300447e-14      -6.810738011236e-13       0.000000000000e+00       1.953848738978e-11       7.478288711570e-12      -9.919848763451e-15 
   70       2.510772077958e-10       4.299871208609e-14      -7.383797745571e-13       0.000000000000e+00       1.890086516006e-11       7.258888997773e-12      -9.860146407328e-15 
   71       2.542584904264e-10       4.473692140010e-14      -7.972749634079e-13       0.000000000000e+00       1.829115426645e-11       7.048581217584e-12      -9.798588997725e-15 
   72       2.574747259938e-10       4.650403740303e-14      -8.577504401301e-13       0.000000000000e+00       1.770851832800e-11       6.847124818121e-12      -9.732259820812e-15 
   73       2.607263814830e-10       4.829928282358e-14      -9.197971573345e-13       0.000000000000e+00       1.715156545632e-11       6.654093285886e-12      -9.657866919235e-15 
   74       2.640134006492e-10       5.012184684928e-14      -9.834060111607e-13       0.000000000000e+00       1.661832210723e-11       6.468865292653e-12      -9.571729125530e-15 
   75       2.673351740894e-10       5.197088531309e-14      -1.048567904650e-12       0.000000000000e+00       1.610620693239e-11       6.290615841350e-12      -9.469762095554e-15 
   76       2.706909352205e-10       5.384545229901e-14      -1.115268556336e-12       0.000000000000e+00       1.561268055783e-11       6.118526621406e-12      -9.348804566650e-15 
   77       2.740810977314e-10       5.574428014752e-14      -1.183471693000e-12       0.000000000000e+00       1.513738951639e-11       5.952480932371e-12      -9.210907217893e-15 
   78       2.775061087815e-10       5.766595948577e-14      -1.253132892929e-12       0.000000000000e+00       1.468036758179e-11       5.792479985587e-12      -9.059804163360e-15 
   79       2.809660238797e-10       5.960900304969e-14      -1.324204525139e-12       0.000000000000e+00       1.424138243599e-11       5.638430648274e-12      -8.899655407222e-15 
   80       2.844604856901e-10       6.157184446434e-14      -1.396635704990e-12       0.000000000000e+00       1.381992338129e-11       5.490141084483e-12      -8.735060359565e-15 
   81       2.879887028372e-10       6.355283702423e-14      -1.470372249808e-12       0.000000000000e+00       1.341518905236e-11       5.347316396053e-12      -8.571071352202e-15 
   82       2.915494287114e-10       6.555025247364e-14      -1.545356634503e-12       0.000000000000e+00       1.302607512836e-11       5.209554263562e-12      -8.413207154494e-15 
   83       2.951409402745e-10       6.756227978693e-14      -1.621527947188e-12       0.000000000000e+00       1.265116204503e-11       5.076340587285e-12      -8.267466489166e-15 
   84       2.987616383856e-10       6.958710096712e-14      -1.698825696454e-12       0.000000000000e+00       1.228906517632e-11       4.947179928685e-12      -8.139012749415e-15 
   85       3.024120095522e-10       7.162313555115e-14      -1.777202055615e-12       0.000000000000e+00       1.193957899713e-11       4.822021229289e-12      -8.027948014090e-15 
   86       3.060929520488e-10       7.366883459066e-14      -1.856611576365e-12       0.000000000000e+00       1.160270095112e-11       4.700895003027e-12      -7.932859976993e-15 
   87       3.098051727217e-10       7.572260731129e-14      -1.937007537652e-12       0.000000000000e+00       1.127827974105e-11       4.583782748002e-12      -7.852079769156e-15 
   88       3.135491762397e-10       7.778282118742e-14      -2.018341966031e-12       0.000000000000e+00       1.096600913275e-11       4.470614852997e-12      -7.783673141910e-15 
   89       3.173252543460e-10       7.984780201696e-14      -2.100565656014e-12       0.000000000000e+00       1.066542175914e-11       4.361268503984e-12      -7.725431649949e-15 
   90       3.211334751086e-10       8.191583399601e-14      -2.183628190427e-12       0.000000000000e+00       1.037588292426e-11       4.255565590638e-12      -7.674863834392e-15 
   91       3.249736721720e-10       8.398515979372e-14      -2.267477960757e-12       0.000000000000e+00       1.009658440722e-11       4.153270612843e-12      -7.629186405857e-15 
   92       3.288454340083e-10       8.605398062693e-14      -2.352062187511e-12       0.000000000000e+00       9.826538266294e-12       4.054088587201e-12      -7.585315427518e-15 
   93       3.327483000128e-10       8.812047591937e-14      -2.437326221308e-12       0.000000000000e+00       9.564814201975e-12       3.957740725119e-12      -7.540467522619e-15 
   94       3.366824058763e-10       9.018286549893e-14      -2.523211281715e-12       0.000000000000e+00       9.311305941053e-12       3.864209034102e-12      -7.494086081314e-15 
   95       3.406479158551e-10       9.223935693657e-14      -2.609656414381e-12       0.000000000000e+00       9.066069197342e-12       3.773524805028e-12      -7.446189801839e-15 
   96       3.446448167714e-10       9.428812713442e-14      -2.696599190332e-12       0.000000000000e+00       8.829085568359e-12       3.685693106285e-12      -7.396788041766e-15 
   97       3.486729101035e-10       9.632732266933e-14      -2.783975716448e-12       0.000000000000e+00       8.600259682633e-12       3.600691757837e-12      -7.345880374774e-15 
   98       3.527318040768e-10       9.835506013649e-14      -2.871720645946e-12       0.000000000000e+00       8.379416347005e-12       3.518470305287e-12      -7.293456147416e-15 
   99       3.568209057537e-10       1.003694264930e-13      -2.959767188856e-12       0.000000000000e+00       8.166297693938e-12       3.438948993948e-12      -7.239494035896e-15 
  100       3.609394131247e-10       1.023684794013e-13      -3.048047122503e-12       0.000000000000e+00       7.960560328817e-12       3.362017742913e-12      -7.183961602837e-15 
  101       3.650863071982e-10       1.043502475731e-13      -3.136490801985e-12       0.000000000000e+00       7.761772477258e-12       3.287535119115e-12      -7.126814854049e-15 
  102       3.692603440917e-10       1.063127311126e-13      -3.225027170656e-12       0.000000000000e+00       7.569411132412e-12       3.215327311400e-12      -7.067997795306e-15 
  103       3.734600471218e-10       1.082539018602e-13      -3.313583770601e-12       0.000000000000e+00       7.382859202269e-12       3.145187104594e-12      -7.007441989113e-15 
  104       3.776840252880e-10       1.101717564407e-13      -3.402088114819e-12       0.000000000000e+00       7.201546891124e-12       3.076922150296e-12      -6.945113891364e-15 
  105       3.819319947580e-10       1.120644828286e-13      -3.490471992295e-12       0.000000000000e+00       7.025403739235e-12       3.010509415234e-12      -6.881165098533e-15 
  106       3.862038812666e-10       1.139303170287e-13      -3.578667766724e-12       0.000000000000e+00       6.854462613164e-12       2.945959781129e-12      -6.815801664868e-15 
  107       3.904995017744e-10       1.157674932922e-13      -3.666607091878e-12       0.000000000000e+00       6.688719672133e-12       2.883270132695e-12      -6.749238215762e-15 
