# Matter power spectrum P(k) at redshift z=3
# for k=1.04054e-05 to 1.4771 h/Mpc,
# number of wavenumbers equal to 614
#    1:k (h/Mpc)              2:P (Mpc/h)^3        
       1.040542703706e-05       4.821156695549e+00 
       2.326241447396e-05       1.049825837780e+01 
       3.616438160833e-05       1.608684411735e+01 
       4.914591274955e-05       2.164272847029e+01 
       6.224216153969e-05       2.719831629058e+01 
       7.548916324788e-05       3.277829058048e+01 
       8.892415700715e-05       3.840401964979e+01 
       1.025859222653e-04       4.409537064651e+01 
       1.165151337538e-04       4.987164620632e+01 
       1.307547393126e-04       5.575215794093e+01 
       1.453503649156e-04       6.175663020723e+01 
       1.603507511830e-04       6.790551903762e+01 
       1.758082254964e-04       7.422028830672e+01 
       1.917792134689e-04       8.072366455263e+01 
       2.083247928832e-04       8.743988412423e+01 
       2.255112921578e-04       9.439493889893e+01 
       2.434109337749e-04       1.016168245500e+02 
       2.621025206891e-04       1.091357919564e+02 
       2.816721602655e-04       1.169846003515e+02 
       3.022140154442e-04       1.251973510896e+02 
       3.238310662366e-04       1.338152695114e+02 
       3.466358559069e-04       1.428787825799e+02 
       3.707511849382e-04       1.524330161128e+02 
       3.963107018374e-04       1.625266064454e+02 
       4.234593230313e-04       1.732284800257e+02 
       4.523533950302e-04       1.845618629304e+02 
       4.831604919873e-04       1.966012545128e+02 
       5.160587232050e-04       2.094082218137e+02 
       5.512354120154e-04       2.230461997369e+02 
       5.888850054645e-04       2.375764682841e+02 
       6.292060905833e-04       2.530673938136e+02 
       6.723974355395e-04       2.695803174123e+02 
       7.186530491058e-04       2.871708504665e+02 
       7.681563617101e-04       3.058939560485e+02 
       8.210737698233e-04       3.257765595486e+02 
       8.775479353667e-04       3.468683588445e+02 
       9.376913644254e-04       3.691492531408e+02 
       1.001580868800e-03       3.926585970668e+02 
       1.069253506242e-03       4.173076548593e+02 
       1.140704482362e-03       4.431591769871e+02 
       1.215887287119e-03       4.700993196426e+02 
       1.294716068303e-03       4.980357573514e+02 
       1.377069970317e-03       5.269592997817e+02 
       1.462798947532e-03       5.567327661373e+02 
       1.477104874446e-03       5.616612012042e+02 
       1.551730439336e-03       5.872626971097e+02 
       1.643676281375e-03       6.184820210509e+02 
       1.738439308598e-03       6.502542907609e+02 
       1.835819246062e-03       6.824921509632e+02 
       1.935617644004e-03       7.150867834416e+02 
       2.037641762210e-03       7.479347675967e+02 
       2.141707425651e-03       7.810042202198e+02 
       2.247640951682e-03       8.142021859175e+02 
       2.355280291412e-03       8.474266218972e+02 
       2.464475541550e-03       8.806452958202e+02 
       2.575088977235e-03       9.137702649619e+02 
       2.686994739246e-03       9.467739721712e+02 
       2.800078286854e-03       9.795942692242e+02 
       2.914235704746e-03       1.012212244484e+03 
       3.029372931390e-03       1.044598186175e+03 
       3.145404958156e-03       1.076687261598e+03 
       3.262255033849e-03       1.108467110391e+03 
       3.379853897762e-03       1.139886913097e+03 
       3.498139055747e-03       1.170983260949e+03 
       3.617054107395e-03       1.201721402161e+03 
       3.736548127913e-03       1.232091582926e+03 
       3.856575105203e-03       1.262052482802e+03 
       3.977093430595e-03       1.291616439090e+03 
       4.098065440410e-03       1.320790937586e+03 
       4.219457004839e-03       1.349542619185e+03 
       4.341237160253e-03       1.377870812624e+03 
       4.463377781017e-03       1.405795666014e+03 
       4.585853286957e-03       1.433271973418e+03 
       4.708640382814e-03       1.460316374593e+03 
       4.831717826294e-03       1.487104136976e+03 
       4.955066221591e-03       1.511868657416e+03 
       5.078667835551e-03       1.544620257484e+03 
       5.202506433925e-03       1.565296985031e+03 
       5.326567135433e-03       1.592016797632e+03 
       5.450836281601e-03       1.610231058221e+03 
       5.575301320574e-03       1.647617932221e+03 
       5.699950703293e-03       1.664725742196e+03 
       5.824773790641e-03       1.679879428534e+03 
       5.949760770293e-03       1.706743735753e+03 
       6.074902582180e-03       1.722774444237e+03 
       6.200190851595e-03       1.758472987187e+03 
       6.325617829084e-03       1.774185165825e+03 
       6.451176336368e-03       1.798643587338e+03 
       6.576859717633e-03       1.813921331572e+03 
       6.702661795604e-03       1.829310952330e+03 
       6.828576831871e-03       1.861273402580e+03 
       6.954599491034e-03       1.876959901578e+03 
       7.080724808237e-03       1.899261105289e+03 
       7.206948159752e-03       1.913797565739e+03 
       7.333265236283e-03       1.928778097012e+03 
       7.459672018720e-03       1.956708703444e+03 
       7.586164756085e-03       1.970486278814e+03 
       7.712739945453e-03       1.985310524933e+03 
       7.839394313647e-03       2.004988025264e+03 
       7.966124800536e-03       2.018404899172e+03 
       8.092928543780e-03       2.031954534857e+03 
       8.219802864873e-03       2.055548123180e+03 
       8.346745256370e-03       2.068901521067e+03 
       8.473753370186e-03       2.081480941829e+03 
       8.600825006859e-03       2.099035709776e+03 
       8.727958105689e-03       2.111383908403e+03 
       8.855150735684e-03       2.123514208489e+03 
       8.982401087229e-03       2.135543062086e+03 
       9.109707464408e-03       2.154875561848e+03 
       9.237068277947e-03       2.166505592139e+03 
       9.364482038688e-03       2.177670479121e+03 
       9.491947351577e-03       2.191987013261e+03 
       9.619462910110e-03       2.202880641789e+03 
       9.747027491197e-03       2.213402432687e+03 
       9.874639950415e-03       2.223651649228e+03 
       1.000229921761e-02       2.239430770299e+03 
       1.013000429282e-02       2.249320609992e+03 
       1.025775424253e-02       2.258925481084e+03 
       1.038554819614e-02       2.268247950102e+03 
       1.051338534274e-02       2.279750603133e+03 
       1.064126492809e-02       2.288453514078e+03 
       1.076918625184e-02       2.297101033375e+03 
       1.089714866491e-02       2.305303655405e+03 
       1.102515156709e-02       2.317701960294e+03 
       1.115319440479e-02       2.325533400901e+03 
       1.128127666898e-02       2.333160433428e+03 
       1.140939789319e-02       2.340554485759e+03 
       1.153755765177e-02       2.347690876980e+03 
       1.166575555819e-02       2.356221026859e+03 
       1.179399126345e-02       2.362852589113e+03 
       1.192226445466e-02       2.369288552961e+03 
       1.205057485368e-02       2.375489313584e+03 
       1.217892221586e-02       2.384709805923e+03 
       1.230730632890e-02       2.390405220783e+03 
       1.243572701169e-02       2.395864387000e+03 
       1.256418411340e-02       2.401159019223e+03 
       1.269267751247e-02       2.406116756254e+03 
       1.282120711577e-02       2.412393908351e+03 
       1.294977285780e-02       2.417007191448e+03 
       1.307837469994e-02       2.421455380696e+03 
       1.320701262976e-02       2.425653186947e+03 
       1.333568666038e-02       2.429427987481e+03 
       1.346439682990e-02       2.435905713582e+03 
       1.359314320085e-02       2.439428369870e+03 
       1.372192585968e-02       2.442700585406e+03 
       1.385074491635e-02       2.445829156727e+03 
       1.397960050390e-02       2.448744478787e+03 
       1.410849277803e-02       2.452612028773e+03 
       1.423742191685e-02       2.455158761560e+03 
       1.436638812051e-02       2.457557656728e+03 
       1.449539161092e-02       2.459578531022e+03 
       1.462443263159e-02       2.461584126979e+03 
       1.475351144731e-02       2.463323497935e+03 
       1.477104874446e-02       2.463566302103e+03 
       1.488262834406e-02       2.467017738399e+03 
       1.501178362880e-02       2.468478384461e+03 
       1.514097762936e-02       2.469726417917e+03 
       1.527021069435e-02       2.470703757381e+03 
       1.539948319303e-02       2.471573565563e+03 
       1.552879551533e-02       2.472158194744e+03 
       1.565814807173e-02       2.473750221481e+03 
       1.578754129331e-02       2.474107253439e+03 
       1.591697563174e-02       2.474235432424e+03 
       1.604645155930e-02       2.474225422945e+03 
       1.617596956894e-02       2.474012746939e+03 
       1.630553017435e-02       2.473768234288e+03 
       1.643513391002e-02       2.475092475387e+03 
       1.656478133140e-02       2.474472067874e+03 
       1.669447301496e-02       2.473643063952e+03 
       1.682420955838e-02       2.472768413483e+03 
       1.695399158071e-02       2.471691490079e+03 
       1.708381972249e-02       2.470396174786e+03 
       1.721369464603e-02       2.469076503122e+03 
       1.734361703554e-02       2.468353823521e+03 
       1.747358759743e-02       2.466710207510e+03 
       1.760360706049e-02       2.464845001803e+03 
       1.773367617620e-02       2.462960663812e+03 
       1.786379571899e-02       2.460792464188e+03 
       1.799396648652e-02       2.458634523485e+03 
       1.812418930002e-02       2.456240981737e+03 
       1.825446500462e-02       2.455374386651e+03 
       1.838479446965e-02       2.452730542237e+03 
       1.851517858905e-02       2.450067283807e+03 
       1.864561828172e-02       2.447170734154e+03 
       1.877611449194e-02       2.444219994731e+03 
       1.890666818976e-02       2.441080158781e+03 
       1.903728037144e-02       2.437876148827e+03 
       1.916795205988e-02       2.434499897625e+03 
       1.929868430514e-02       2.431853513538e+03 
       1.942947818484e-02       2.428243125662e+03 
       1.956033480473e-02       2.424630501078e+03 
       1.969125529919e-02       2.420781980172e+03 
       1.982224083174e-02       2.416954558095e+03 
       1.995329259565e-02       2.412895623266e+03 
       2.008441181448e-02       2.408843565801e+03 
       2.021559974267e-02       2.406026978981e+03 
       2.034685766622e-02       2.401723390614e+03 
       2.047818690323e-02       2.397344142652e+03 
       2.060958880466e-02       2.392821574889e+03 
       2.074106475495e-02       2.388270438604e+03 
       2.087261617273e-02       2.383574196334e+03 
       2.100424451158e-02       2.378817761932e+03 
       2.113595126074e-02       2.373934233525e+03 
       2.126773794593e-02       2.368988321816e+03 
       2.139960613009e-02       2.364622814899e+03 
       2.153155741426e-02       2.359528496713e+03 
       2.166359343841e-02       2.354317706870e+03 
       2.179571588231e-02       2.349018096333e+03 
       2.192792646644e-02       2.343675378342e+03 
       2.206022695293e-02       2.338219533100e+03 
       2.219261914653e-02       2.332679693485e+03 
       2.232510489556e-02       2.327114868680e+03 
       2.245768609301e-02       2.322682234891e+03 
       2.259036467752e-02       2.316982921743e+03 
       2.272314263450e-02       2.311148788811e+03 
       2.285602199729e-02       2.305328872940e+03 
       2.298900484823e-02       2.299352765938e+03 
       2.312209331997e-02       2.293404172609e+03 
       2.325528959658e-02       2.287306736024e+03 
       2.338859591492e-02       2.281155905913e+03 
       2.352201456590e-02       2.275002698343e+03 
       2.365554789586e-02       2.268729224592e+03 
       2.378919830794e-02       2.263000023301e+03 
       2.392296826352e-02       2.256672058886e+03 
       2.405686028374e-02       2.250223895855e+03 
       2.419087695101e-02       2.243797948842e+03 
       2.432502091059e-02       2.237240871670e+03 
       2.445929487222e-02       2.230636431145e+03 
       2.459370161184e-02       2.224053142607e+03 
       2.472824397330e-02       2.217351798746e+03 
       2.486292487018e-02       2.210651551049e+03 
       2.499774728761e-02       2.204972535350e+03 
       2.513271428426e-02       2.198141240385e+03 
       2.526782899425e-02       2.191326068031e+03 
       2.540309462927e-02       2.184409493396e+03 
       2.553851448063e-02       2.177467363010e+03 
       2.567409192150e-02       2.170508138831e+03 
       2.580983040917e-02       2.163501049058e+03 
       2.594573348737e-02       2.156431356636e+03 
       2.608180478872e-02       2.149375847893e+03 
       2.621804803720e-02       2.142219375597e+03 
       2.635446705080e-02       2.135581218087e+03 
       2.649106574416e-02       2.128405571946e+03 
       2.662784813135e-02       2.121169622551e+03 
       2.676481832878e-02       2.113955307967e+03 
       2.690198055817e-02       2.106648695893e+03 
       2.703933914960e-02       2.099330555147e+03 
       2.717689854477e-02       2.092010275363e+03 
       2.731466330028e-02       2.084654585707e+03 
       2.745263809105e-02       2.077227305501e+03 
       2.759082771394e-02       2.069840632154e+03 
       2.772923709140e-02       2.062395698217e+03 
       2.786787127534e-02       2.055877537121e+03 
       2.800673545105e-02       2.048428275690e+03 
       2.814583494141e-02       2.040907442960e+03 
       2.828517521114e-02       2.033379697612e+03 
       2.842476187124e-02       2.025859984908e+03 
       2.856460068364e-02       2.018322080316e+03 
       2.870469756600e-02       2.010731858618e+03 
       2.884505859673e-02       2.003171823943e+03 
       2.898569002016e-02       1.995553643675e+03 
       2.912659825194e-02       1.987922875510e+03 
       2.926778988471e-02       1.980327314057e+03 
       2.940927169391e-02       1.973098732837e+03 
       2.955105064388e-02       1.965443454533e+03 
       2.969313389423e-02       1.957762475039e+03 
       2.983552880642e-02       1.950112744046e+03 
       2.997824295068e-02       1.942403539881e+03 
       3.012128411315e-02       1.934729890460e+03 
       3.026466030343e-02       1.927031073785e+03 
       3.040837976232e-02       1.919294740776e+03 
       3.055245097005e-02       1.911591925203e+03 
       3.069688265471e-02       1.903873929479e+03 
       3.084168380121e-02       1.896120986531e+03 
       3.098686366051e-02       1.889205679879e+03 
       3.113243175938e-02       1.881458798641e+03 
       3.127839791049e-02       1.873722441256e+03 
       3.142477222306e-02       1.865963610972e+03 
       3.157156511394e-02       1.858242776928e+03 
       3.171878731929e-02       1.850487619710e+03 
       3.186644990665e-02       1.842723136539e+03 
       3.201456428782e-02       1.834993211980e+03 
       3.216314223213e-02       1.827239181069e+03 
       3.231219588051e-02       1.819479253569e+03 
       3.246173776018e-02       1.811754016500e+03 
       3.261178080010e-02       1.803978591172e+03 
       3.276233834716e-02       1.796593436304e+03 
       3.291342418323e-02       1.788834535603e+03 
       3.306505254306e-02       1.781113971710e+03 
       3.321723813307e-02       1.773359063002e+03 
       3.336999615121e-02       1.765622303121e+03 
       3.352334230776e-02       1.757903072622e+03 
       3.367729284733e-02       1.750154060464e+03 
       3.383186457197e-02       1.742418876494e+03 
       3.398707486558e-02       1.734717415365e+03 
       3.414294171965e-02       1.726977825455e+03 
       3.429948376044e-02       1.719260431310e+03 
       3.445672027767e-02       1.711533316886e+03 
       3.461467125485e-02       1.704515348342e+03 
       3.477335740136e-02       1.696812651961e+03 
       3.493280018636e-02       1.689120989854e+03 
       3.509302187478e-02       1.681450612240e+03 
       3.525404556529e-02       1.673760278304e+03 
       3.541589523077e-02       1.666075963787e+03 
       3.557859576103e-02       1.658428891736e+03 
       3.574217300831e-02       1.650756801666e+03 
       3.590665383558e-02       1.643098863277e+03 
       3.607206616783e-02       1.635470112048e+03 
       3.623843904671e-02       1.627815449950e+03 
       3.640580268868e-02       1.620179133676e+03 
       3.657418854697e-02       1.612840465814e+03 
       3.674362937765e-02       1.605241733112e+03 
       3.691415931015e-02       1.597619977320e+03 
       3.708581392257e-02       1.590004791684e+03 
       3.725863032219e-02       1.582423175335e+03 
       3.743264723166e-02       1.574821987776e+03 
       3.760790508122e-02       1.567230629891e+03 
       3.778444610759e-02       1.559668452031e+03 
       3.796231446012e-02       1.552076785769e+03 
       3.814155631469e-02       1.544502926388e+03 
       3.832221999621e-02       1.536928399750e+03 
       3.850435611046e-02       1.529390749567e+03 
       3.868801768604e-02       1.521821886929e+03 
       3.887326032752e-02       1.514826260111e+03 
       3.906014238072e-02       1.507302163954e+03 
       3.924872511136e-02       1.499756097212e+03 
       3.943907289836e-02       1.492225338625e+03 
       3.963125344326e-02       1.484702489689e+03 
       3.982533799737e-02       1.477165246830e+03 
       4.002140160842e-02       1.469633613967e+03 
       4.021952338886e-02       1.462112575382e+03 
       4.041978680795e-02       1.454608444560e+03 
       4.062228001034e-02       1.447072765335e+03 
       4.082709616387e-02       1.439561473335e+03 
       4.103433384002e-02       1.432284365002e+03 
       4.124409743059e-02       1.424755115702e+03 
       4.145649760478e-02       1.417242721469e+03 
       4.167165181144e-02       1.409713772057e+03 
       4.188968483196e-02       1.402185708471e+03 
       4.211072938975e-02       1.394662725734e+03 
       4.233492682356e-02       1.387113233291e+03 
       4.256242783254e-02       1.379555469082e+03 
       4.279339330237e-02       1.372015202436e+03 
       4.302799522306e-02       1.364441660052e+03 
       4.326641771075e-02       1.356855952116e+03 
       4.350885814773e-02       1.349727418991e+03 
       4.375552845718e-02       1.342122218563e+03 
       4.400665653182e-02       1.334517865161e+03 
       4.426248783906e-02       1.326886396232e+03 
       4.452328722872e-02       1.319236057473e+03 
       4.478934097441e-02       1.311555447918e+03 
       4.506095908484e-02       1.303876052011e+03 
       4.533847792814e-02       1.296148508759e+03 
       4.562226322031e-02       1.288416643467e+03 
       4.591271343870e-02       1.280620786179e+03 
       4.621026373321e-02       1.273018690178e+03 
       4.651539042258e-02       1.265167293620e+03 
       4.682861618114e-02       1.257275258502e+03 
       4.715051604315e-02       1.249354808373e+03 
       4.748172437962e-02       1.241366040076e+03 
       4.782294303632e-02       1.233346332155e+03 
       4.817495086417e-02       1.225242669799e+03 
       4.853861492688e-02       1.217099063852e+03 
       4.891490373747e-02       1.209218683246e+03 
       4.930490296053e-02       1.200928002991e+03 
       4.970983412476e-02       1.192540858254e+03 
       5.013107702715e-02       1.184061288117e+03 
       5.057019668468e-02       1.175469034490e+03 
       5.102897591211e-02       1.166786463283e+03 
       5.150945488734e-02       1.157950391370e+03 
       5.201397942530e-02       1.149137489030e+03 
       5.254526013314e-02       1.139998792473e+03 
       5.310644517947e-02       1.130672011724e+03 
       5.370121008541e-02       1.121139632652e+03 
       5.433386872082e-02       1.111361668258e+03 
       5.500951049606e-02       1.101561913568e+03 
       5.573416939588e-02       1.091169904235e+03 
       5.651503059043e-02       1.080374034587e+03 
       5.736067900236e-02       1.069106796774e+03 
       5.828138966609e-02       1.057382022791e+03 
       5.928944870006e-02       1.044814852816e+03 
