# Matter power spectrum P(k) at redshift z=3
# for k=1.04054e-05 to 1.4771 h/Mpc,
# number of wavenumbers equal to 614
#    1:k (h/Mpc)              2:P (Mpc/h)^3        
       1.040542703706e-05       4.879064890969e+00 
       2.326241447396e-05       1.062435117918e+01 
       3.616438160833e-05       1.628004806459e+01 
       4.914591274955e-05       2.190263480216e+01 
       6.224216153969e-05       2.752489945496e+01 
       7.548916324788e-05       3.317181499886e+01 
       8.892415700715e-05       3.886499923051e+01 
       1.025859222653e-04       4.462454987371e+01 
       1.165151337538e-04       5.046999224211e+01 
       1.307547393126e-04       5.642085933853e+01 
       1.453503649156e-04       6.249710014459e+01 
       1.603507511830e-04       6.871940190983e+01 
       1.758082254964e-04       7.510946945581e+01 
       1.917792134689e-04       8.169028203622e+01 
       2.083247928832e-04       8.848634302351e+01 
       2.255112921578e-04       9.552392763565e+01 
       2.434109337749e-04       1.028313330781e+02 
       2.621025206891e-04       1.104391315920e+02 
       2.816721602655e-04       1.183804252655e+02 
       3.022140154442e-04       1.266903047615e+02 
       3.238310662366e-04       1.354091883873e+02 
       3.466358559069e-04       1.445784880384e+02 
       3.707511849382e-04       1.542437598629e+02 
       3.963107018374e-04       1.644540887268e+02 
       4.234593230313e-04       1.752724193080e+02 
       4.523533950302e-04       1.867349021384e+02 
       4.831604919873e-04       1.989104111841e+02 
       5.160587232050e-04       2.118610076967e+02 
       5.512354120154e-04       2.256504772668e+02 
       5.888850054645e-04       2.403415911058e+02 
       6.292060905833e-04       2.560429164161e+02 
       6.723974355395e-04       2.727355572386e+02 
       7.186530491058e-04       2.905144103714e+02 
       7.681563617101e-04       3.094316308866e+02 
       8.210737698233e-04       3.295178335922e+02 
       8.775479353667e-04       3.508030481112e+02 
       9.376913644254e-04       3.733957716584e+02 
       1.001580868800e-03       3.973291118096e+02 
       1.069253506242e-03       4.222697440469e+02 
       1.140704482362e-03       4.483615163056e+02 
       1.215887287119e-03       4.755873845171e+02 
       1.294716068303e-03       5.038612496621e+02 
       1.377069970317e-03       5.330350628952e+02 
       1.462798947532e-03       5.630604636390e+02 
       1.477104874446e-03       5.680628778623e+02 
       1.551730439336e-03       5.938536935563e+02 
       1.643676281375e-03       6.253422010026e+02 
       1.738439308598e-03       6.573461558422e+02 
       1.835819246062e-03       6.897762299021e+02 
       1.935617644004e-03       7.225906488404e+02 
       2.037641762210e-03       7.556214793483e+02 
       2.141707425651e-03       7.888390877332e+02 
       2.247640951682e-03       8.221532892595e+02 
       2.355280291412e-03       8.554684998078e+02 
       2.464475541550e-03       8.887343490407e+02 
       2.575088977235e-03       9.218919646839e+02 
       2.686994739246e-03       9.548903655946e+02 
       2.800078286854e-03       9.876671018840e+02 
       2.914235704746e-03       1.020199906347e+03 
       3.029372931390e-03       1.052450049353e+03 
       3.145404958156e-03       1.084389427690e+03 
       3.262255033849e-03       1.115981811660e+03 
       3.379853897762e-03       1.147198425064e+03 
       3.498139055747e-03       1.178036404230e+03 
       3.617054107395e-03       1.208457110345e+03 
       3.736548127913e-03       1.238464322788e+03 
       3.856575105203e-03       1.268037426320e+03 
       3.977093430595e-03       1.297171345665e+03 
       4.098065440410e-03       1.325846990759e+03 
       4.219457004839e-03       1.354060242121e+03 
       4.341237160253e-03       1.381814810283e+03 
       4.463377781017e-03       1.409082842168e+03 
       4.585853286957e-03       1.435892057527e+03 
       4.708640382814e-03       1.462207523965e+03 
       4.831717826294e-03       1.457702037827e+03 
       4.955066221591e-03       1.516174890779e+03 
       5.078667835551e-03       1.497555474800e+03 
       5.202506433925e-03       1.545161763247e+03 
       5.326567135433e-03       1.564912431046e+03 
       5.450836281601e-03       1.604454373088e+03 
       5.575301320574e-03       1.602515541504e+03 
       5.699950703293e-03       1.636099888820e+03 
       5.824773790641e-03       1.669408153821e+03 
       5.949760770293e-03       1.684875911293e+03 
       6.074902582180e-03       1.712510206194e+03 
       6.200190851595e-03       1.720379715106e+03 
       6.325617829084e-03       1.744990564094e+03 
       6.451176336368e-03       1.762668180177e+03 
       6.576859717633e-03       1.784957295287e+03 
       6.702661795604e-03       1.806148769543e+03 
       6.828576831871e-03       1.819381314288e+03 
       6.954599491034e-03       1.838711904917e+03 
       7.080724808237e-03       1.855610374407e+03 
       7.206948159752e-03       1.873626720472e+03 
       7.333265236283e-03       1.890866578387e+03 
       7.459672018720e-03       1.906460336537e+03 
       7.586164756085e-03       1.922542009513e+03 
       7.712739945453e-03       1.938084581669e+03 
       7.839394313647e-03       1.953445505597e+03 
       7.966124800536e-03       1.967821224750e+03 
       8.092928543780e-03       1.981707852102e+03 
       8.219802864873e-03       1.997432423919e+03 
       8.346745256370e-03       2.010552802808e+03 
       8.473753370186e-03       2.023002823222e+03 
       8.600825006859e-03       2.036934986812e+03 
       8.727958105689e-03       2.048615465440e+03 
       8.855150735684e-03       2.059837818859e+03 
       8.982401087229e-03       2.070681488978e+03 
       9.109707464408e-03       2.085315513616e+03 
       9.237068277947e-03       2.095569883696e+03 
       9.364482038688e-03       2.105283044979e+03 
       9.491947351577e-03       2.116991360363e+03 
       9.619462910110e-03       2.126147700143e+03 
       9.747027491197e-03       2.134832627770e+03 
       9.874639950415e-03       2.143112085009e+03 
       1.000229921761e-02       2.156222997825e+03 
       1.013000429282e-02       2.164093516174e+03 
       1.025775424253e-02       2.171578783260e+03 
       1.038554819614e-02       2.178679620872e+03 
       1.051338534274e-02       2.188094009228e+03 
       1.064126492809e-02       2.194490842774e+03 
       1.076918625184e-02       2.200735396957e+03 
       1.089714866491e-02       2.206437184400e+03 
       1.102515156709e-02       2.217487930170e+03 
       1.115319440479e-02       2.222885925264e+03 
       1.128127666898e-02       2.228006551581e+03 
       1.140939789319e-02       2.232828984365e+03 
       1.153755765177e-02       2.237323648494e+03 
       1.166575555819e-02       2.244064892521e+03 
       1.179399126345e-02       2.248020840556e+03 
       1.192226445466e-02       2.251734055686e+03 
       1.205057485368e-02       2.255161470510e+03 
       1.217892221586e-02       2.263812753074e+03 
       1.230730632890e-02       2.266808806712e+03 
       1.243572701169e-02       2.269515800773e+03 
       1.256418411340e-02       2.272042604169e+03 
       1.269267751247e-02       2.274136056674e+03 
       1.282120711577e-02       2.278858072213e+03 
       1.294977285780e-02       2.280666136123e+03 
       1.307837469994e-02       2.282302353025e+03 
       1.320701262976e-02       2.283640786971e+03 
       1.333568666038e-02       2.284387893468e+03 
       1.346439682990e-02       2.290805941705e+03 
       1.359314320085e-02       2.291510966900e+03 
       1.372192585968e-02       2.291910926582e+03 
       1.385074491635e-02       2.292178194666e+03 
       1.397960050390e-02       2.292203007630e+03 
       1.410849277803e-02       2.294579670332e+03 
       1.423742191685e-02       2.294281607085e+03 
       1.436638812051e-02       2.293855334837e+03 
       1.449539161092e-02       2.292886293931e+03 
       1.462443263159e-02       2.292027343552e+03 
       1.475351144731e-02       2.290819673383e+03 
       1.477104874446e-02       2.290680338148e+03 
       1.488262834406e-02       2.294548699421e+03 
       1.501178362880e-02       2.293237444070e+03 
       1.514097762936e-02       2.291677484027e+03 
       1.527021069435e-02       2.289757297580e+03 
       1.539948319303e-02       2.287780968773e+03 
       1.552879551533e-02       2.285403593022e+03 
       1.565814807173e-02       2.285722440930e+03 
       1.578754129331e-02       2.283271865108e+03 
       1.591697563174e-02       2.280525979154e+03 
       1.604645155930e-02       2.277664233517e+03 
       1.617596956894e-02       2.274554766640e+03 
       1.630553017435e-02       2.271550620758e+03 
       1.643513391002e-02       2.272971789316e+03 
       1.656478133140e-02       2.269619053673e+03 
       1.669447301496e-02       2.265997504269e+03 
       1.682420955838e-02       2.262447364438e+03 
       1.695399158071e-02       2.258644594235e+03 
       1.708381972249e-02       2.254549961558e+03 
       1.721369464603e-02       2.250572754660e+03 
       1.734361703554e-02       2.248540680737e+03 
       1.747358759743e-02       2.244246805510e+03 
       1.760360706049e-02       2.239645482017e+03 
       1.773367617620e-02       2.235171114613e+03 
       1.786379571899e-02       2.230243864602e+03 
       1.799396648652e-02       2.225512952303e+03 
       1.812418930002e-02       2.220429153905e+03 
       1.825446500462e-02       2.219813142187e+03 
       1.838479446965e-02       2.214583047550e+03 
       1.851517858905e-02       2.209465911866e+03 
       1.864561828172e-02       2.203999438642e+03 
       1.877611449194e-02       2.198575679294e+03 
       1.890666818976e-02       2.192890540846e+03 
       1.903728037144e-02       2.187225337484e+03 
       1.916795205988e-02       2.181330381610e+03 
       1.929868430514e-02       2.177690154035e+03 
       1.942947818484e-02       2.171611011456e+03 
       1.956033480473e-02       2.165687696118e+03 
       1.969125529919e-02       2.159380906240e+03 
       1.982224083174e-02       2.153277638025e+03 
       1.995329259565e-02       2.146799826580e+03 
       2.008441181448e-02       2.140494087881e+03 
       2.021559974267e-02       2.137947414632e+03 
       2.034685766622e-02       2.131407145482e+03 
       2.047818690323e-02       2.124838890321e+03 
       2.060958880466e-02       2.118090983252e+03 
       2.074106475495e-02       2.111416340722e+03 
       2.087261617273e-02       2.104549860995e+03 
       2.100424451158e-02       2.097682333743e+03 
       2.113595126074e-02       2.090661738001e+03 
       2.126773794593e-02       2.083634552566e+03 
       2.139960613009e-02       2.078457313026e+03 
       2.153155741426e-02       2.071373733531e+03 
       2.166359343841e-02       2.064151562768e+03 
       2.179571588231e-02       2.056854622505e+03 
       2.192792646644e-02       2.049588215170e+03 
       2.206022695293e-02       2.042174323805e+03 
       2.219261914653e-02       2.034696571441e+03 
       2.232510489556e-02       2.027287621723e+03 
       2.245768609301e-02       2.023285561215e+03 
       2.259036467752e-02       2.015829504621e+03 
       2.272314263450e-02       2.008179446436e+03 
       2.285602199729e-02       2.000675047282e+03 
       2.298900484823e-02       1.992924930811e+03 
       2.312209331997e-02       1.985344860110e+03 
       2.325528959658e-02       1.977530756354e+03 
       2.338859591492e-02       1.969697592028e+03 
       2.352201456590e-02       1.961968604595e+03 
       2.365554789586e-02       1.954064093016e+03 
       2.378919830794e-02       1.947833587457e+03 
       2.392296826352e-02       1.940016194805e+03 
       2.405686028374e-02       1.932016565604e+03 
       2.419087695101e-02       1.924169942083e+03 
       2.432502091059e-02       1.916109418427e+03 
       2.445929487222e-02       1.908033515775e+03 
       2.459370161184e-02       1.900101770613e+03 
       2.472824397330e-02       1.891984701535e+03 
       2.486292487018e-02       1.883960860773e+03 
       2.499774728761e-02       1.878923604801e+03 
       2.513271428426e-02       1.870787135915e+03 
       2.526782899425e-02       1.862767908756e+03 
       2.540309462927e-02       1.854596580070e+03 
       2.553851448063e-02       1.846441722397e+03 
       2.567409192150e-02       1.838329874738e+03 
       2.580983040917e-02       1.830185211059e+03 
       2.594573348737e-02       1.821973757199e+03 
       2.608180478872e-02       1.813868632376e+03 
       2.621804803720e-02       1.805598137719e+03 
       2.635446705080e-02       1.798829893380e+03 
       2.649106574416e-02       1.790664290233e+03 
       2.662784813135e-02       1.782426218197e+03 
       2.676481832878e-02       1.774307041811e+03 
       2.690198055817e-02       1.766036225307e+03 
       2.703933914960e-02       1.757806037486e+03 
       2.717689854477e-02       1.749631266636e+03 
       2.731466330028e-02       1.741435185160e+03 
       2.745263809105e-02       1.733130930356e+03 
       2.759082771394e-02       1.724981365794e+03 
       2.772923709140e-02       1.716756008239e+03 
       2.786787127534e-02       1.711107768422e+03 
       2.800673545105e-02       1.702985031559e+03 
       2.814583494141e-02       1.694747563717e+03 
       2.828517521114e-02       1.686547470986e+03 
       2.842476187124e-02       1.678413563187e+03 
       2.856460068364e-02       1.670286989910e+03 
       2.870469756600e-02       1.662084298583e+03 
       2.884505859673e-02       1.653996604097e+03 
       2.898569002016e-02       1.645817121668e+03 
       2.912659825194e-02       1.637654347015e+03 
       2.926778988471e-02       1.629615964693e+03 
       2.940927169391e-02       1.622618383621e+03 
       2.955105064388e-02       1.614523771674e+03 
       2.969313389423e-02       1.606406811533e+03 
       2.983552880642e-02       1.598399881488e+03 
       2.997824295068e-02       1.590292016548e+03 
       3.012128411315e-02       1.582299851886e+03 
       3.026466030343e-02       1.574284228074e+03 
       3.040837976232e-02       1.566213823773e+03 
       3.055245097005e-02       1.558253982977e+03 
       3.069688265471e-02       1.550289576442e+03 
       3.084168380121e-02       1.542272089519e+03 
       3.098686366051e-02       1.536447878088e+03 
       3.113243175938e-02       1.528507472704e+03 
       3.127839791049e-02       1.520616828231e+03 
       3.142477222306e-02       1.512701038293e+03 
       3.157156511394e-02       1.504892631950e+03 
       3.171878731929e-02       1.497033346398e+03 
       3.186644990665e-02       1.489175504139e+03 
       3.201456428782e-02       1.481417630820e+03 
       3.216314223213e-02       1.473624283002e+03 
       3.231219588051e-02       1.465839345281e+03 
       3.246173776018e-02       1.458153620868e+03 
       3.261178080010e-02       1.450375379455e+03 
       3.276233834716e-02       1.443593540646e+03 
       3.291342418323e-02       1.435887926945e+03 
       3.306505254306e-02       1.428283462677e+03 
       3.321723813307e-02       1.420618111831e+03 
       3.336999615121e-02       1.413008076479e+03 
       3.352334230776e-02       1.405452407503e+03 
       3.367729284733e-02       1.397843824860e+03 
       3.383186457197e-02       1.390279549966e+03 
       3.398707486558e-02       1.382803789374e+03 
       3.414294171965e-02       1.375255132573e+03 
       3.429948376044e-02       1.367767430193e+03 
       3.445672027767e-02       1.360266289371e+03 
       3.461467125485e-02       1.354514310179e+03 
       3.477335740136e-02       1.347093613125e+03 
       3.493280018636e-02       1.339706651244e+03 
       3.509302187478e-02       1.332376189502e+03 
       3.525404556529e-02       1.325011092721e+03 
       3.541589523077e-02       1.317670504601e+03 
       3.557859576103e-02       1.310418537594e+03 
       3.574217300831e-02       1.303119146636e+03 
       3.590665383558e-02       1.295858396977e+03 
       3.607206616783e-02       1.288670622177e+03 
       3.623843904671e-02       1.281432407173e+03 
       3.640580268868e-02       1.274241522245e+03 
       3.657418854697e-02       1.267770185561e+03 
       3.674362937765e-02       1.260675993148e+03 
       3.691415931015e-02       1.253538461925e+03 
       3.708581392257e-02       1.246422044295e+03 
       3.725863032219e-02       1.239384424834e+03 
       3.743264723166e-02       1.232311583419e+03 
       3.760790508122e-02       1.225266449452e+03 
       3.778444610759e-02       1.218291444433e+03 
       3.796231446012e-02       1.211259862068e+03 
       3.814155631469e-02       1.204273132407e+03 
       3.832221999621e-02       1.197291651917e+03 
       3.850435611046e-02       1.190396328932e+03 
       3.868801768604e-02       1.183441341879e+03 
       3.887326032752e-02       1.177819046265e+03 
       3.906014238072e-02       1.170973954194e+03 
       3.924872511136e-02       1.164092656283e+03 
       3.943907289836e-02       1.157251818036e+03 
       3.963125344326e-02       1.150437756673e+03 
       3.982533799737e-02       1.143601429001e+03 
       4.002140160842e-02       1.136787000509e+03 
       4.021952338886e-02       1.130005077749e+03 
       4.041978680795e-02       1.123270344420e+03 
       4.062228001034e-02       1.116480559253e+03 
       4.082709616387e-02       1.109753574706e+03 
       4.103433384002e-02       1.103568216082e+03 
       4.124409743059e-02       1.096830958883e+03 
       4.145649760478e-02       1.090143806487e+03 
       4.167165181144e-02       1.083436510190e+03 
       4.188968483196e-02       1.076747084321e+03 
       4.211072938975e-02       1.070086352432e+03 
       4.233492682356e-02       1.063389209740e+03 
       4.256242783254e-02       1.056694850909e+03 
       4.279339330237e-02       1.050057298826e+03 
       4.302799522306e-02       1.043373158622e+03 
       4.326641771075e-02       1.036687956732e+03 
       4.350885814773e-02       1.031025349978e+03 
       4.375552845718e-02       1.024352752849e+03 
       4.400665653182e-02       1.017709908214e+03 
       4.426248783906e-02       1.011042709889e+03 
       4.452328722872e-02       1.004369704442e+03 
       4.478934097441e-02       9.976703247637e+02 
       4.506095908484e-02       9.910104136599e+02 
       4.533847792814e-02       9.842931631901e+02 
       4.562226322031e-02       9.776089410741e+02 
       4.591271343870e-02       9.708418066136e+02 
       4.621026373321e-02       9.645357049953e+02 
       4.651539042258e-02       9.577578417563e+02 
       4.682861618114e-02       9.509553921256e+02 
       4.715051604315e-02       9.441559530465e+02 
       4.748172437962e-02       9.372853991195e+02 
       4.782294303632e-02       9.304230756304e+02 
       4.817495086417e-02       9.234699777851e+02 
       4.853861492688e-02       9.165189182752e+02 
       4.891490373747e-02       9.102105396083e+02 
       4.930490296053e-02       9.031537841517e+02 
       4.970983412476e-02       8.960122734222e+02 
       5.013107702715e-02       8.888035622156e+02 
       5.057019668468e-02       8.815011030352e+02 
       5.102897591211e-02       8.741594251132e+02 
       5.150945488734e-02       8.666723192882e+02 
       5.201397942530e-02       8.594132994877e+02 
       5.254526013314e-02       8.517002482926e+02 
       5.310644517947e-02       8.438386535176e+02 
       5.370121008541e-02       8.358244137406e+02 
       5.433386872082e-02       8.276176955864e+02 
       5.500951049606e-02       8.197098506447e+02 
       5.573416939588e-02       8.110273778127e+02 
       5.651503059043e-02       8.020219204791e+02 
       5.736067900236e-02       7.926559686563e+02 
       5.828138966609e-02       7.830788012389e+02 
       5.928944870006e-02       7.727076065855e+02 
