# dimensionless total lensed [l(l+1)/2pi] C_l's
# for l=2 to 2600, i.e. number of multipoles equal to 2599
#
# -> if you prefer output in CAMB/HealPix/LensPix units/order, set 'format' to 'camb' in input file
# -> if you don't want to see such a header, set 'headers' to 'no' in input file
# -> for CMB lensing (phi), these are C_l^phi-phi for the lensing potential.
#    Remember the conversion factors:
#    C_l^dd (deflection) = l(l+1) C_l^phi-phi
#    C_l^gg (shear/convergence) = 1/4 (l(l+1))^2 C_l^phi-phi
#
# 1:l     2:TT                     3:EE                     4:TE                     5:BB                     6:phiphi                 7:TPhi                   8:Ephi               
    2       1.425354953984e-10       4.492739737757e-15       3.647555771074e-13       2.071169351928e-19       7.719780857618e-09       4.712265438617e-10      -1.906734352907e-12 
    3       1.350472957705e-10       5.996109528321e-15       4.157355028906e-13       4.142700630176e-19       4.712745456798e-09       3.387231730779e-10      -1.479671955180e-12 
    4       1.278276355793e-10       5.416692064982e-15       3.943235368704e-13       6.905319706050e-19       3.258929357057e-09       2.599009163215e-10      -1.000884069478e-12 
    5       1.222647128120e-10       3.780466676087e-15       3.405216457053e-13       1.035954807119e-18       2.422331224366e-09       2.077880878706e-10      -5.854823041779e-13 
    6       1.184192006503e-10       2.192387706409e-15       2.777698127624e-13       1.450606843508e-18       1.885495162717e-09       1.709894169602e-10      -2.679438913282e-13 
    7       1.159138135706e-10       1.185300119630e-15       2.201178290086e-13       1.934574168565e-18       1.516494388942e-09       1.438168785025e-10      -5.440359730990e-14 
    8       1.142716014794e-10       7.316537425859e-16       1.741206407658e-13       2.487962388759e-18       1.249933276262e-09       1.230112675439e-10       6.529081204005e-14 
    9       1.133344555043e-10       5.729061549596e-16       1.417006695378e-13       3.110898179025e-18       1.049912513372e-09       1.066543174519e-10       1.106017334064e-13 
   10       1.130570802253e-10       4.959898748286e-16       1.222400617768e-13       3.803530529327e-18       8.953203161535e-10       9.359985054110e-11       1.051462877487e-13 
   11       1.132244531220e-10       4.224657219957e-16       1.136829899391e-13       4.566031537944e-18       7.580910436706e-10       8.334141382967e-11       7.235747806816e-14 
   12       1.136246525929e-10       3.609940176646e-16       1.129318859595e-13       5.398596617040e-18       6.615806753824e-10       7.444338932461e-11       3.121164431887e-14 
   13       1.143511816348e-10       3.331211505200e-16       1.170162697341e-13       6.301443998512e-18       5.822612859551e-10       6.709490461516e-11      -4.706236924696e-15 
   14       1.153990869545e-10       3.383643738106e-16       1.239764927617e-13       7.274813457561e-18       5.165924762742e-10       6.067239224601e-11      -2.877518150944e-14 
   15       1.165266436899e-10       3.614954190946e-16       1.321960998798e-13       8.318964206514e-18       4.611884468753e-10       5.521480068543e-11      -3.867391901829e-14 
   16       1.176936902468e-10       3.933892348492e-16       1.404468742814e-13       9.434171950674e-18       4.142665446438e-10       5.053521360566e-11      -3.670375525617e-14 
   17       1.190136012772e-10       4.376350408068e-16       1.486109648189e-13       1.062072513946e-17       3.740213609335e-10       4.643107678856e-11      -2.740907834906e-14 
   18       1.204790979550e-10       5.010854996200e-16       1.569545279305e-13       1.187892094877e-17       3.390826054731e-10       4.278047015594e-11      -1.595707543204e-14 
   19       1.220911488165e-10       5.868379560868e-16       1.655370016722e-13       1.320905788495e-17       3.089480127414e-10       3.956154714880e-11      -5.763639590753e-15 
   20       1.237981492480e-10       6.956729342224e-16       1.743398914112e-13       1.461143515575e-17       2.824872530293e-10       3.670083570799e-11       2.559552540781e-16 
   21       1.255493541709e-10       8.254593169207e-16       1.834922743154e-13       1.608634063894e-17       2.592387067404e-10       3.416676519535e-11       1.709092793230e-15 
   22       1.272771349574e-10       9.729429604096e-16       1.931128823543e-13       1.763405081170e-17       2.385780308371e-10       3.189782461856e-11      -5.624438845367e-16 
   23       1.290564327581e-10       1.139236063429e-15       2.030035380574e-13       1.925481961392e-17       2.202368400732e-10       2.985615488794e-11      -5.142789612609e-15 
   24       1.309733660897e-10       1.326369165667e-15       2.127966498709e-13       2.094887829478e-17       2.038302050769e-10       2.799005240255e-11      -1.016967987359e-14 
   25       1.329783148507e-10       1.533382574288e-15       2.221177977996e-13       2.271642611445e-17       1.891533840497e-10       2.629855962623e-11      -1.425079514586e-14 
   26       1.349717099356e-10       1.758626914588e-15       2.305812058548e-13       2.455762983795e-17       1.759137253428e-10       2.477660538584e-11      -1.621015410864e-14 
   27       1.369738304795e-10       2.003769061777e-15       2.380082952296e-13       2.647261777729e-17       1.639509065826e-10       2.339502208714e-11      -1.599994645668e-14 
   28       1.390290371306e-10       2.271546209363e-15       2.443041494309e-13       2.846147973118e-17       1.530644829670e-10       2.210966120081e-11      -1.407268616939e-14 
   29       1.411441612157e-10       2.563718706995e-15       2.494675492706e-13       3.052426998188e-17       1.431984092086e-10       2.091724495561e-11      -1.115416474683e-14 
   30       1.432986888360e-10       2.881821436432e-15       2.535536207530e-13       3.266099999484e-17       1.342438099883e-10       1.981784217182e-11      -8.251427265936e-15 
   31       1.454625491718e-10       3.227349989435e-15       2.566407111368e-13       3.487164070664e-17       1.260148313055e-10       1.880261465542e-11      -6.397251158590e-15 
   32       1.476469028263e-10       3.601312652837e-15       2.587646515505e-13       3.715614521138e-17       1.184686098023e-10       1.786720086620e-11      -5.713902367294e-15 
   33       1.498699738749e-10       4.004498456891e-15       2.599626670333e-13       3.951442962364e-17       1.115523196942e-10       1.700145127319e-11      -5.996112010424e-15 
   34       1.521418004784e-10       4.437604430433e-15       2.602544390204e-13       4.194637595455e-17       1.051695424610e-10       1.619025057104e-11      -6.948518891640e-15 
   35       1.544605585878e-10       4.901311421993e-15       2.595132849633e-13       4.445187206070e-17       9.928706607960e-11       1.543194195818e-11      -8.198307022255e-15 
   36       1.568130379092e-10       5.396220373518e-15       2.575472549918e-13       4.703078249810e-17       9.385669193149e-11       1.472530143892e-11      -9.274064384540e-15 
   37       1.591813859485e-10       5.922911867757e-15       2.541656600966e-13       4.968295595365e-17       8.880662604791e-11       1.406602265914e-11      -9.723463259150e-15 
   38       1.615668652151e-10       6.482246163370e-15       2.492994677060e-13       5.240829225452e-17       8.412342894791e-11       1.345295582463e-11      -9.554244254002e-15 
   39       1.639726572394e-10       7.075157122013e-15       2.429197891822e-13       5.520669667057e-17       7.979200924440e-11       1.288328751289e-11      -8.938331212053e-15 
   40       1.663967937969e-10       7.702571289566e-15       2.350062966439e-13       5.807806208775e-17       7.577072123900e-11       1.235045526273e-11      -8.098164574453e-15 
   41       1.688354307490e-10       8.365350830879e-15       2.255505714133e-13       6.102229081952e-17       7.200581608948e-11       1.184643249909e-11      -7.267987674295e-15 
   42       1.712952819405e-10       9.064101170232e-15       2.145662268965e-13       6.403936833633e-17       6.848601733881e-11       1.137025740557e-11      -6.554294603733e-15 
   43       1.737843013009e-10       9.799299906426e-15       2.020829446550e-13       6.712931370842e-17       6.520181570802e-11       1.092173469676e-11      -6.035732595644e-15 
   44       1.763079197317e-10       1.057134368352e-14       1.881446185878e-13       7.029216153259e-17       6.212909586337e-11       1.049892380775e-11      -5.801854572223e-15 
   45       1.788689082576e-10       1.138058693227e-14       1.727887259871e-13       7.352797080770e-17       5.923770851211e-11       1.009899632274e-11      -5.921368002380e-15 
   46       1.814676051621e-10       1.222748225000e-14       1.559754294002e-13       7.683685093849e-17       5.652298053205e-11       9.721455385635e-12      -6.334334540720e-15 
   47       1.841012612289e-10       1.311247452197e-14       1.376384750986e-13       8.021894623958e-17       5.398164882306e-11       9.365632293605e-12      -6.928628375776e-15 
   48       1.867636160952e-10       1.403595957760e-14       1.177041732900e-13       8.367443131503e-17       5.160235858712e-11       9.029682823275e-12      -7.568107379667e-15 
   49       1.894446158383e-10       1.499828228495e-14       9.609087272757e-14       8.720351308404e-17       4.936506209215e-11       8.710500060227e-12      -8.091275414201e-15 
   50       1.921341813923e-10       1.599972150028e-14       7.272309328113e-14       9.080641466733e-17       4.724704258718e-11       8.404684902386e-12      -8.355967277949e-15 
   51       1.948353748903e-10       1.704044452195e-14       4.757966497714e-14       9.448331719063e-17       4.524430856818e-11       8.111970366829e-12      -8.390806180388e-15 
   52       1.975543190089e-10       1.812053697962e-14       2.065774758744e-14       9.823440568596e-17       4.335496747045e-11       7.832576092797e-12      -8.282545401115e-15 
   53       2.002963688875e-10       1.924001243406e-14      -8.040524788278e-15       1.020598869944e-16       4.157282547664e-11       7.566195395459e-12      -8.134447249026e-15 
   54       2.030660203431e-10       2.039880985301e-14      -3.850787932639e-14       1.059599909383e-16       3.988709805257e-11       7.311957868306e-12      -8.067111139754e-15 
   55       2.058667320456e-10       2.159683970260e-14      -7.073800614871e-14       1.099349293039e-16       3.828569364361e-11       7.068787735073e-12      -8.187852260072e-15 
   56       2.087005505868e-10       2.283414141283e-14      -1.047460149780e-13       1.139847581722e-16       3.676668315743e-11       6.836668827893e-12      -8.488032486098e-15 
   57       2.115682315008e-10       2.411076060854e-14      -1.405527724023e-13       1.181094834412e-16       3.532917272767e-11       6.615628352022e-12      -8.921674703730e-15 
   58       2.144692240752e-10       2.542670330469e-14      -1.781791590530e-13       1.223090995573e-16       3.396983320854e-11       6.405347168341e-12      -9.434289032369e-15 
   59       2.174015762126e-10       2.678193527628e-14      -2.176461493413e-13       1.265835890437e-16       3.268274992463e-11       6.205137814561e-12      -9.962475600548e-15 
   60       2.203618392935e-10       2.817638142828e-14      -2.589748911946e-13       1.309329220287e-16       3.145927242076e-11       6.013922526420e-12      -1.043352732156e-14 
   61       2.233464874524e-10       2.960983737258e-14      -3.021796377736e-13       1.353570308128e-16       3.029041061426e-11       5.830553751279e-12      -1.078170655649e-14 
   62       2.263567629074e-10       3.108168239163e-14      -3.472445082599e-13       1.398557279664e-16       2.917499166135e-11       5.654909480557e-12      -1.100224303063e-14 
   63       2.293947543430e-10       3.259110063507e-14      -3.941416285324e-13       1.444287689275e-16       2.811307569772e-11       5.487005893546e-12      -1.110880660707e-14 
   64       2.324619323119e-10       3.413715987941e-14      -4.428376747388e-13       1.490758741021e-16       2.710350291866e-11       5.326665668419e-12      -1.111803214191e-14 
   65       2.355591021484e-10       3.571880811230e-14      -4.932937262306e-13       1.537967276004e-16       2.614382412429e-11       5.173506870450e-12      -1.104965130981e-14 
   66       2.386863568820e-10       3.733487011686e-14      -5.454651184990e-13       1.585909759736e-16       2.523023126479e-11       5.026931840242e-12      -1.092662442937e-14 
   67       2.418430301505e-10       3.898404405598e-14      -5.993012961089e-13       1.634582269498e-16       2.435748798565e-11       4.886116081955e-12      -1.077527228866e-14 
   68       2.450283440200e-10       4.066504175216e-14      -6.547546472292e-13       1.683981052361e-16       2.352032713186e-11       4.750235843183e-12      -1.061988089493e-14 
   69       2.482436101237e-10       4.237705016889e-14      -7.118094146655e-13       1.734104358801e-16       2.271812733714e-11       4.619229240895e-12      -1.046495158448e-14 
   70       2.514903919925e-10       4.411935773112e-14      -7.704584056860e-13       1.784950959628e-16       2.195106361714e-11       4.493170106580e-12      -1.030957460976e-14 
   71       2.547698208229e-10       4.589121915803e-14      -8.306946099136e-13       1.836519610126e-16       2.121869288959e-11       4.372038022917e-12      -1.015262862893e-14 
   72       2.580825661629e-10       4.769185572245e-14      -8.925112819701e-13       1.888809052012e-16       2.051992203767e-11       4.255713316648e-12      -9.992771173877e-15 
   73       2.614288065976e-10       4.952045551026e-14      -9.559020241190e-13       1.941818015392e-16       1.985297597340e-11       4.143972051450e-12      -9.828429118243e-15 
   74       2.648082004355e-10       5.137617367975e-14      -1.020860868909e-12       1.995545220720e-16       1.921536570093e-11       4.036481020804e-12      -9.657789145483e-15 
   75       2.682198563942e-10       5.325813272104e-14      -1.087382361819e-12       2.049989380756e-16       1.860385638000e-11       3.932792740872e-12      -9.478788216888e-15 
   76       2.716628122458e-10       5.516534852682e-14      -1.155454903737e-12       2.105149937086e-16       1.801526920190e-11       3.832465197905e-12      -9.290151026244e-15 
   77       2.751376363181e-10       5.709649246711e-14      -1.225039194147e-12       2.161029420407e-16       1.744912643041e-11       3.735457368868e-12      -9.094741846012e-15 
   78       2.786450661342e-10       5.905008619740e-14      -1.296085988838e-12       2.217631526209e-16       1.690543291539e-11       3.641797064061e-12      -8.896809428561e-15 
   79       2.821855077688e-10       6.102457075674e-14      -1.368542436659e-12       2.274960435139e-16       1.638387047141e-11       3.551460161763e-12      -8.701005987984e-15 
   80       2.857590169500e-10       6.301830530587e-14      -1.442352023953e-12       2.333020830028e-16       1.588378303916e-11       3.464368159296e-12      -8.512399137438e-15 
   81       2.893652801620e-10       6.502956586530e-14      -1.517454518987e-12       2.391817912907e-16       1.540416184679e-11       3.380385724092e-12      -8.336483826487e-15 
   82       2.930035957464e-10       6.705654405337e-14      -1.593785916382e-12       2.451357422031e-16       1.494363057130e-11       3.299318244754e-12      -8.179194278443e-15 
   83       2.966728550048e-10       6.909734582440e-14      -1.671278381543e-12       2.511645648896e-16       1.450043049989e-11       3.220909382123e-12      -8.046915927716e-15 
   84       3.003719928962e-10       7.115007219140e-14      -1.749865158888e-12       2.572688861263e-16       1.407284768485e-11       3.144907491640e-12      -7.944763039650e-15 
   85       3.041014673735e-10       7.321307953418e-14      -1.829496353149e-12       2.634491425021e-16       1.366060827485e-11       3.071282906635e-12      -7.871057349170e-15 
   86       3.078619917814e-10       7.528476033183e-14      -1.910125674554e-12       2.697057400729e-16       1.326368836959e-11       3.000042353485e-12      -7.821951728114e-15 
   87       3.116540762223e-10       7.736346512915e-14      -1.991705735090e-12       2.760391116863e-16       1.288188529207e-11       2.931162010589e-12      -7.793066162742e-15 
   88       3.154780165506e-10       7.944750265271e-14      -2.074188076359e-12       2.824497176860e-16       1.251481017835e-11       2.864586216938e-12      -7.779470542889e-15 
   89       3.193338833673e-10       8.153513992677e-14      -2.157523197435e-12       2.889380466152e-16       1.216188056744e-11       2.800226180675e-12      -7.775667451117e-15 
   90       3.232215110137e-10       8.362460238928e-14      -2.241660582719e-12       2.955046159204e-16       1.182231299108e-11       2.737958687666e-12      -7.775574951861e-15 
   91       3.271404865668e-10       8.571407400791e-14      -2.326548729793e-12       3.021499726553e-16       1.149511556362e-11       2.677624810063e-12      -7.772509380579e-15 
   92       3.310901388327e-10       8.780169739598e-14      -2.412135177282e-12       3.088746941843e-16       1.117908057181e-11       2.619028614870e-12      -7.759168132908e-15 
   93       3.350697822131e-10       8.988559506793e-14      -2.498365320689e-12       3.156793050975e-16       1.087307088310e-11       2.561986945991e-12      -7.729266263099e-15 
   94       3.390795141610e-10       9.196393661064e-14      -2.585178595686e-12       3.225640121313e-16       1.057694454035e-11       2.506490140086e-12      -7.682765227373e-15 
   95       3.431195178721e-10       9.403488187609e-14      -2.672511769626e-12       3.295289304956e-16       1.029075617260e-11       2.452563207131e-12      -7.621402381981e-15 
   96       3.471898106934e-10       9.609656114285e-14      -2.760300113475e-12       3.365741636698e-16       1.001447223538e-11       2.400216328231e-12      -7.547112661134e-15 
   97       3.512902366167e-10       9.814707552221e-14      -2.848477413036e-12       3.436998029566e-16       9.747967633670e-12       2.349444265265e-12      -7.462034067724e-15 
   98       3.554204587710e-10       1.001844973643e-13      -2.936975980162e-12       3.509059270358e-16       9.491022344991e-12       2.300225770528e-12      -7.368513164041e-15 
   99       3.595799519158e-10       1.022068706645e-13      -3.025726663981e-12       3.581926015175e-16       9.243318042401e-12       2.252522996374e-12      -7.269110562493e-15 
  100       3.637679949341e-10       1.042122114690e-13      -3.114658862110e-12       3.655598784962e-16       9.004434717533e-12       2.206280904858e-12      -7.166606416323e-15 
  101       3.679836633252e-10       1.061985082819e-13      -3.203700531877e-12       3.730077961038e-16       8.773847303620e-12       2.161426677381e-12      -7.064005910332e-15 
  102       3.722258216975e-10       1.081637224703e-13      -3.292778201539e-12       3.805363780640e-16       8.550922298528e-12       2.117869124330e-12      -6.964544751593e-15 
  103       3.764931162621e-10       1.101057886715e-13      -3.381816981500e-12       3.881456332450e-16       8.334914387782e-12       2.075498094723e-12      -6.871694660175e-15 
  104       3.807842624140e-10       1.120226694970e-13      -3.470741984904e-12       3.958356764584e-16       8.125135322468e-12       2.034210927551e-12      -6.788407292321e-15 
  105       3.850989678910e-10       1.139125271887e-13      -3.559482783791e-12       4.036071103995e-16       7.921493807621e-12       1.993997146779e-12      -6.714717864329e-15 
  106       3.894371209059e-10       1.157735760162e-13      -3.647969578619e-12       4.114606947096e-16       7.724022588767e-12       1.954864160073e-12      -6.649826542468e-15 
  107       3.937985019802e-10       1.176040310400e-13      -3.736131869033e-12       4.193972302133e-16       7.532711243528e-12       1.916810949108e-12      -6.592828259744e-15 
