# dimensionless total lensed [l(l+1)/2pi] C_l's
# for l=2 to 2600, i.e. number of multipoles equal to 2599
#
# -> if you prefer output in CAMB/HealPix/LensPix units/order, set 'format' to 'camb' in input file
# -> if you don't want to see such a header, set 'headers' to 'no' in input file
# -> for CMB lensing (phi), these are C_l^phi-phi for the lensing potential.
#    Remember the conversion factors:
#    C_l^dd (deflection) = l(l+1) C_l^phi-phi
#    C_l^gg (shear/convergence) = 1/4 (l(l+1))^2 C_l^phi-phi
#
# 1:l     2:TT                     3:EE                     4:TE                     5:BB                     6:phiphi                 7:TPhi                   8:Ephi               
    2       1.474608284856e-10       4.488206359677e-15       3.610422863083e-13       1.900367261732e-19       7.309258516811e-09       4.914169194482e-10      -1.901746547280e-12 
    3       1.398951267013e-10       5.992009827954e-15       4.134405709434e-13       3.801022125703e-19       4.450429893048e-09       3.558431815977e-10      -1.474669536264e-12 
    4       1.323784026320e-10       5.413298540223e-15       3.932665891081e-13       6.335691713380e-19       3.064453563908e-09       2.746616288500e-10      -9.964212038575e-13 
    5       1.264632907646e-10       3.778840288930e-15       3.404628289287e-13       9.504802129984e-19       2.268380083637e-09       2.207648627319e-10      -5.815252269790e-13 
    6       1.223492003952e-10       2.192230883640e-15       2.784520334987e-13       1.330891996905e-18       1.759328382112e-09       1.826242160354e-10      -2.642687730334e-13 
    7       1.196614871988e-10       1.186025501946e-15       2.212966144536e-13       1.774877122775e-18       1.410795407556e-09       1.544164021714e-10      -5.091175256277e-14 
    8       1.177740489312e-10       7.328261287308e-16       1.755499419598e-13       2.282526053248e-18       1.159827777183e-09       1.327117893754e-10       6.855423460684e-14 
    9       1.165717074961e-10       5.742029416515e-16       1.430490331350e-13       2.853948908850e-18       9.720729518980e-10       1.155340654236e-10       1.135375912229e-13 
   10       1.161497614280e-10       4.970719127272e-16       1.232684966732e-13       3.489276973836e-18       8.274465591828e-10       1.017830613147e-10       1.077695960204e-13 
   11       1.161879245026e-10       4.228610589266e-16       1.144735483146e-13       4.188663757286e-18       7.021505981242e-10       9.098629236302e-11       7.475064100354e-14 
   12       1.163815951117e-10       3.602296672180e-16       1.134319798368e-13       4.952285468316e-18       6.119960115896e-10       8.166066976132e-11       3.357225207144e-14 
   13       1.169924830155e-10       3.314358565935e-16       1.171373018318e-13       5.780340786833e-18       5.379329196479e-10       7.386246962125e-11      -2.416087281218e-15 
   14       1.180724026528e-10       3.363530856286e-16       1.239786841324e-13       6.673049841031e-18       4.766435690819e-10       6.704405881642e-11      -2.673036960440e-14 
   15       1.191312939614e-10       3.591230058382e-16       1.321936477082e-13       7.630652338418e-18       4.250944619998e-10       6.130862017855e-11      -3.672900268939e-14 
   16       1.201127104510e-10       3.908477413904e-16       1.402854120792e-13       8.653404837045e-18       3.814958653224e-10       5.632007212024e-11      -3.488586388902e-14 
   17       1.212768712604e-10       4.358893822333e-16       1.484851276844e-13       9.741577185976e-18       3.441935617849e-10       5.193486932910e-11      -2.565845685703e-14 
   18       1.226739831397e-10       4.996260400007e-16       1.570732742106e-13       1.089544867806e-17       3.117780815689e-10       4.804146666550e-11      -1.434183689746e-14 
   19       1.242818952039e-10       5.852284425477e-16       1.659309050135e-13       1.211530072953e-17       2.838032645998e-10       4.460509743428e-11      -4.353979454687e-15 
   20       1.259950119500e-10       6.942025852415e-16       1.748370758522e-13       1.340141646435e-17       2.593165827337e-10       4.153929441403e-11       1.469116954062e-15 
   21       1.277063748004e-10       8.238898682206e-16       1.838990654570e-13       1.475406857453e-17       2.378570665041e-10       3.882109876163e-11       2.769280869044e-15 
   22       1.293084410635e-10       9.702511205487e-16       1.933055963029e-13       1.617351947920e-17       2.187735888425e-10       3.639936886879e-11       4.016411728089e-16 
   23       1.309661384546e-10       1.135113004590e-15       2.030164980910e-13       1.766000996141e-17       2.018270665293e-10       3.422598811628e-11      -4.240418111869e-15 
   24       1.328778788362e-10       1.321607265754e-15       2.128170886344e-13       1.921375924889e-17       1.866952257880e-10       3.223009247249e-11      -9.331253753102e-15 
   25       1.349154557152e-10       1.528461313625e-15       2.221841263215e-13       2.083495534399e-17       1.731834804733e-10       3.040623077091e-11      -1.349140500633e-14 
   26       1.368538464653e-10       1.753308036881e-15       2.305227258905e-13       2.252375480404e-17       1.610036475264e-10       2.874942156541e-11      -1.554357387521e-14 
   27       1.387530334605e-10       1.997862728537e-15       2.377837473185e-13       2.428027640285e-17       1.500017342199e-10       2.723650436352e-11      -1.540229272412e-14 
   28       1.407426634242e-10       2.265132077373e-15       2.440891247229e-13       2.610460126144e-17       1.399907235200e-10       2.582949666814e-11      -1.347904157426e-14 
   29       1.428303350915e-10       2.556893449438e-15       2.494234315445e-13       2.799677513137e-17       1.309191840706e-10       2.452279122690e-11      -1.052332094945e-14 
   30       1.449644999097e-10       2.874608184816e-15       2.537365038098e-13       2.995680171145e-17       1.226881989820e-10       2.330939159146e-11      -7.595706129183e-15 
   31       1.470845920600e-10       3.219704531985e-15       2.569942502603e-13       3.198464491306e-17       1.151280687180e-10       2.217356425191e-11      -5.778944173980e-15 
   32       1.492095002145e-10       3.593235580611e-15       2.592067352777e-13       3.408025050728e-17       1.081992025449e-10       2.111633188782e-11      -5.173914841091e-15 
   33       1.513800723561e-10       3.996082427265e-15       2.604128944012e-13       3.624352767916e-17       1.018523331211e-10       2.013764830092e-11      -5.524120989418e-15 
   34       1.536267828202e-10       4.429001348517e-15       2.606422558465e-13       3.847435197904e-17       9.599803206063e-11       1.923102708709e-11      -6.487604826118e-15 
   35       1.559391431294e-10       4.892511274692e-15       2.598019017760e-13       4.077260454121e-17       9.060524308387e-11       1.839100714311e-11      -7.711913685551e-15 
   36       1.582833776141e-10       5.386948304443e-15       2.577484513530e-13       4.313814341488e-17       8.562916211016e-11       1.760700941670e-11      -8.773026728407e-15 
   37       1.606218603142e-10       5.912652092701e-15       2.543375834207e-13       4.557081108415e-17       8.100331455374e-11       1.686534808465e-11      -9.262796114261e-15 
   38       1.629573691890e-10       6.470544075285e-15       2.494976389743e-13       4.807050113365e-17       7.671518767457e-11       1.616528730303e-11      -9.179764990012e-15 
   39       1.653021054028e-10       7.061736268235e-15       2.431794895618e-13       5.063711276522e-17       7.275087324739e-11       1.550754298801e-11      -8.666841199001e-15 
   40       1.676653172608e-10       7.687379793822e-15       2.353370035627e-13       5.327053304765e-17       6.907210232977e-11       1.488959859366e-11      -7.910485346359e-15 
   41       1.700539148722e-10       8.348555038128e-15       2.259366297949e-13       5.597065880173e-17       6.562946999322e-11       1.430704544578e-11      -7.112201772810e-15 
   42       1.724755481904e-10       9.045892957774e-15       2.149895623872e-13       5.873747060906e-17       6.241238966772e-11       1.375885294617e-11      -6.384670518398e-15 
   43       1.749358354307e-10       9.779834809448e-15       2.025302833757e-13       6.157098304581e-17       5.941182803981e-11       1.324330676684e-11      -5.826829471959e-15 
   44       1.774370853155e-10       1.055072884451e-14       1.886087988956e-13       6.447122652506e-17       5.660531330232e-11       1.275633017270e-11      -5.553257762293e-15 
   45       1.799787617930e-10       1.135887527302e-14       1.732688509000e-13       6.743825644130e-17       5.396486118524e-11       1.229295996642e-11      -5.656346717677e-15 
   46       1.825598540102e-10       1.220468939718e-14       1.564729334383e-13       7.047218009175e-17       5.148609377016e-11       1.185274482657e-11      -6.077426936084e-15 
   47       1.851766300716e-10       1.308857843361e-14       1.381561955078e-13       7.357314052646e-17       4.916601057188e-11       1.143564012767e-11      -6.698484466994e-15 
   48       1.878216005310e-10       1.401089336685e-14       1.182465676389e-13       7.674131168572e-17       4.699421590751e-11       1.104039327079e-11      -7.376068978189e-15 
   49       1.904832211664e-10       1.497192665534e-14       9.666424742507e-14       7.997690043536e-17       4.495236955243e-11       1.066445099286e-11      -7.939874802252e-15 
   50       1.931500872123e-10       1.597191175039e-14       7.333508506170e-14       8.328013067208e-17       4.301969329473e-11       1.030482880259e-11      -8.239272047550e-15 
   51       1.958255477732e-10       1.701102682117e-14       4.823621689890e-14       8.665118583172e-17       4.119252717419e-11       9.961212550172e-12      -8.301081858845e-15 
   52       1.985165445552e-10       1.808938807549e-14       2.136192930964e-14       9.009025429357e-17       3.946913198846e-11       9.633538522051e-12      -8.212174719560e-15 
   53       2.012293832935e-10       1.920704587883e-14      -7.289022373128e-15       9.359754710946e-17       3.784383925663e-11       9.321058606515e-12      -8.076081088889e-15 
   54       2.039696478899e-10       2.036398254564e-14      -3.771327420734e-14       9.717329919530e-17       3.630678685873e-11       9.022292879536e-12      -8.013828921920e-15 
   55       2.067418307491e-10       2.156014864977e-14      -6.990780174283e-14       1.008177280561e-16       3.484691501656e-11       8.735559342462e-12      -8.133410796367e-15 
   56       2.095483129521e-10       2.279558757879e-14      -1.038865236955e-13       1.045308952240e-16       3.346243142068e-11       8.460825862075e-12      -8.427384319927e-15 
   57       2.123899803409e-10       2.407033805289e-14      -1.396675783758e-13       1.083128124858e-16       3.215248281729e-11       8.198235242605e-12      -8.851300448057e-15 
   58       2.152663903116e-10       2.538439762416e-14      -1.772686546205e-13       1.121634808801e-16       3.091398809690e-11       7.947543996560e-12      -9.352468802358e-15 
   59       2.181756748952e-10       2.673772196858e-14      -2.167070503675e-13       1.160828902344e-16       2.974150096002e-11       7.708097417017e-12      -9.869572967578e-15 
   60       2.211144438370e-10       2.813022417807e-14      -2.579997312306e-13       1.200710187023e-16       2.862707258287e-11       7.478804649916e-12      -1.033228578861e-14 
   61       2.240791668200e-10       2.956169116156e-14      -3.011572377341e-13       1.241278063031e-16       2.756244867986e-11       7.258483720527e-12      -1.067695845148e-14 
   62       2.270709019451e-10       3.103151252228e-14      -3.461636763992e-13       1.282530696499e-16       2.654654766034e-11       7.047043505431e-12      -1.089867320666e-14 
   63       2.300914614529e-10       3.253888929081e-14      -3.929923209446e-13       1.324465671727e-16       2.557942496131e-11       6.844524039583e-12      -1.101024494867e-14 
   64       2.331419772394e-10       3.408290817403e-14      -4.416112334174e-13       1.367080221637e-16       2.466002475677e-11       6.650737045171e-12      -1.102730125622e-14 
   65       2.362228508681e-10       3.566253821711e-14      -4.919831275900e-13       1.410371214898e-16       2.378611669207e-11       6.465252742279e-12      -1.096840769823e-14 
   66       2.393337035821e-10       3.727662746542e-14      -5.440652323580e-13       1.454335143040e-16       2.295423261826e-11       6.287386659546e-12      -1.085519313990e-14 
   67       2.424733263163e-10       3.892389962658e-14      -5.978091551373e-13       1.498968107583e-16       2.215960332643e-11       6.116186444824e-12      -1.071247504864e-14 
   68       2.456404874273e-10       4.060308745109e-14      -6.531694241776e-13       1.544266366286e-16       2.139743078340e-11       5.950701566987e-12      -1.056321721580e-14 
   69       2.488366576760e-10       4.231337171979e-14      -7.101314308037e-13       1.590228129240e-16       2.066714560577e-11       5.790885362636e-12      -1.041193640743e-14 
   70       2.520637501346e-10       4.405402561892e-14      -7.686889296228e-13       1.636852105244e-16       1.996890257273e-11       5.636852913702e-12      -1.025814312099e-14 
   71       2.553232837749e-10       4.582428604744e-14      -8.288359444002e-13       1.684136976273e-16       1.930229286619e-11       5.488608480934e-12      -1.010120494506e-14 
   72       2.586163554165e-10       4.762335377568e-14      -8.905668534234e-13       1.732081398895e-16       1.866631496121e-11       5.346039549627e-12      -9.940339702027e-15 
   73       2.619436116760e-10       4.945039360387e-14      -9.538764748671e-13       1.780684005695e-16       1.805934551635e-11       5.208910875346e-12      -9.774608590872e-15 
   74       2.653052209149e-10       5.130453452082e-14      -1.018760152158e-12       1.829943406691e-16       1.747911026413e-11       5.076858529660e-12      -9.602909329852e-15 
   75       2.687008451892e-10       5.318486986249e-14      -1.085213839338e-12       1.879858190760e-16       1.692265490132e-11       4.949383945864e-12      -9.423969299248e-15 
   76       2.721299704396e-10       5.509039125454e-14      -1.153226947140e-12       1.930427661998e-16       1.638707674117e-11       4.825988611926e-12      -9.237186788866e-15 
   77       2.755930285874e-10       5.701977618236e-14      -1.222759186412e-12       1.981654200685e-16       1.587193804922e-11       4.706619667795e-12      -9.045347003473e-15 
   78       2.790904300455e-10       5.897156179163e-14      -1.293759637449e-12       2.033541337434e-16       1.537724194924e-11       4.591295124720e-12      -8.852391176830e-15 
   79       2.826222032582e-10       6.094420648795e-14      -1.366173552610e-12       2.086093072674e-16       1.490269741202e-11       4.479967406130e-12      -8.662622768264e-15 
   80       2.861879739961e-10       6.293608873772e-14      -1.439942293236e-12       2.139313893134e-16       1.444770574579e-11       4.372520277446e-12      -8.480717996471e-15 
   81       2.897869446504e-10       6.494550586887e-14      -1.515003266567e-12       2.193208788342e-16       1.401134708665e-11       4.268765775893e-12      -8.311736373321e-15 
   82       2.934178735280e-10       6.697067287169e-14      -1.591289862654e-12       2.247783267112e-16       1.359236688902e-11       4.168441140317e-12      -8.161131237661e-15 
   83       2.970790541460e-10       6.900972119961e-14      -1.668731391286e-12       2.303043374037e-16       1.318916241603e-11       4.071205740993e-12      -8.034760289120e-15 
   84       3.007689042433e-10       7.106077475575e-14      -1.747258756950e-12       2.358995121158e-16       1.280017178690e-11       3.976730394865e-12      -7.937273518669e-15 
   85       3.044878903640e-10       7.312219495306e-14      -1.826822702868e-12       2.415642638593e-16       1.242514481555e-11       3.884989048854e-12      -7.866946865393e-15 
   86       3.082368858501e-10       7.519237427014e-14      -1.907378489842e-12       2.472989746135e-16       1.206405906051e-11       3.796010047250e-12      -7.820007420500e-15 
   87       3.120165791888e-10       7.726966277420e-14      -1.988880459974e-12       2.531040517372e-16       1.171672935523e-11       3.709786550474e-12      -7.792163390446e-15 
   88       3.158274635547e-10       7.935236821910e-14      -2.071282070023e-12       2.589799286360e-16       1.138280106411e-11       3.626275017584e-12      -7.778587360090e-15 
   89       3.196698263513e-10       8.143875614337e-14      -2.154535924754e-12       2.649270654278e-16       1.106174333863e-11       3.545393688784e-12      -7.773899555861e-15 
   90       3.235437387535e-10       8.352704996822e-14      -2.238593810303e-12       2.709459496092e-16       1.075284237344e-11       3.467021067938e-12      -7.772151108915e-15 
   91       3.274490452494e-10       8.561543109563e-14      -2.323406727521e-12       2.770370967222e-16       1.045519466245e-11       3.390994405074e-12      -7.766807318301e-15 
   92       3.313853531824e-10       8.770203900633e-14      -2.408924925337e-12       2.832010510197e-16       1.016770025489e-11       3.317108178892e-12      -7.750730914120e-15 
   93       3.353522215268e-10       8.978499361806e-14      -2.495096136454e-12       2.894383023136e-16       9.889323599372e-12       3.245168597827e-12      -7.717797905633e-15 
   94       3.393497824065e-10       9.186246599378e-14      -2.581859908466e-12       2.957490207640e-16       9.619935600382e-12       3.175169775779e-12      -7.668059474101e-15 
   95       3.433781941520e-10       9.393261849875e-14      -2.669152477840e-12       3.021332832480e-16       9.359586327598e-12       3.107141370826e-12      -7.603329096650e-15 
   96       3.474374427761e-10       9.599358388600e-14      -2.756908500174e-12       3.085911531473e-16       9.108245682698e-12       3.041094189098e-12      -7.525624732914e-15 
   97       3.515273342511e-10       9.804346570002e-14      -2.845061058868e-12       3.151226798632e-16       8.865800328579e-12       2.977019436236e-12      -7.437174498416e-15 
   98       3.556474867854e-10       1.000803386803e-13      -2.933541673807e-12       3.217278983328e-16       8.632050618591e-12       2.914887968867e-12      -7.340422337958e-15 
   99       3.597973231005e-10       1.021022491649e-13      -3.022280310039e-12       3.284068285444e-16       8.406707525755e-12       2.854649546067e-12      -7.238033699010e-15 
  100       3.639760627081e-10       1.041072154941e-13      -3.111205386452e-12       3.351594750535e-16       8.189389571997e-12       2.796232080825e-12      -7.132901205095e-15 
  101       3.681827141865e-10       1.060932284139e-13      -3.200243784456e-12       3.419858264980e-16       7.979619757370e-12       2.739540891516e-12      -7.028150329176e-15 
  102       3.724160674579e-10       1.080582514800e-13      -3.289320856660e-12       3.488858551144e-16       7.776822489280e-12       2.684457953362e-12      -6.927145067047e-15 
  103       3.766746860653e-10       1.100002214607e-13      -3.378360435549e-12       3.558595162532e-16       7.580320511716e-12       2.630841149901e-12      -6.833493610716e-15 
  104       3.809572125957e-10       1.119171029349e-13      -3.467286548065e-12       3.629068696119e-16       7.389488338803e-12       2.578558382359e-12      -6.750254783744e-15 
  105       3.852633485739e-10       1.138070596137e-13      -3.556028804422e-12       3.700284626288e-16       7.204242774606e-12       2.527596757596e-12      -6.677423040779e-15 
  106       3.895929931564e-10       1.156683070219e-13      -3.644517756810e-12       3.772249982181e-16       7.024613239074e-12       2.477966823044e-12      -6.614112723345e-15 
  107       3.939459375747e-10       1.174990613579e-13      -3.732683285592e-12       3.844972185208e-16       6.850589846168e-12       2.429668664855e-12      -6.559323887662e-15 
