# Matter power spectrum P(k) at redshift z=3
# for k=1.04294e-05 to 1.4771 h/Mpc,
# number of wavenumbers equal to 614
#    1:k (h/Mpc)              2:P (Mpc/h)^3        
       1.042943301342e-05       4.788031769019e+00 
       2.328647417362e-05       1.041332366932e+01 
       3.618855933523e-05       1.595106536966e+01 
       4.917027359833e-05       2.145648711262e+01 
       6.226677197304e-05       2.696168158146e+01 
       7.551409168867e-05       3.249110338084e+01 
       8.894947445338e-05       3.806592785172e+01 
       1.026117029358e-04       4.370584572582e+01 
       1.165414557728e-04       4.942999044865e+01 
       1.307816854418e-04       5.525750621181e+01 
       1.453780233403e-04       6.120794806913e+01 
       1.603792163629e-04       6.730159819427e+01 
       1.758375990854e-04       7.355973958735e+01 
       1.918096053132e-04       8.000490929523e+01 
       2.083563221008e-04       8.666114357931e+01 
       2.255440883028e-04       9.355422207077e+01 
       2.434451380858e-04       1.007119144720e+02 
       2.621382874135e-04       1.081642306738e+02 
       2.817096580479e-04       1.159436726482e+02 
       3.022534287520e-04       1.240854837643e+02 
       3.238725967842e-04       1.326278879798e+02 
       3.466797240219e-04       1.416123074708e+02 
       3.707976307869e-04       1.510835425199e+02 
       3.963599863998e-04       1.610898918073e+02 
       4.235117286810e-04       1.716831847162e+02 
       4.524092255391e-04       1.829186901544e+02 
       4.832200717340e-04       1.948548593676e+02 
       5.161223953391e-04       2.075528543908e+02 
       5.513035353104e-04       2.210758108961e+02 
       5.889579496039e-04       2.354877866261e+02 
       6.292842296774e-04       2.508523572279e+02 
       6.724811397794e-04       2.672308430327e+02 
       7.187426746320e-04       2.846801852250e+02 
       7.682522390141e-04       3.032505378110e+02 
       8.211761912734e-04       3.229826991091e+02 
       8.776571427268e-04       3.439055647441e+02 
       9.378075374467e-04       3.660338304864e+02 
       1.001704116040e-03       3.893661929409e+02 
       1.069383859157e-03       4.139100725756e+02 
       1.140841893407e-03       4.395781051113e+02 
       1.216031632122e-03       4.663522883109e+02 
       1.294867152865e-03       4.941486517816e+02 
       1.377227539485e-03       5.228981440235e+02 
       1.462962697688e-03       5.525106325530e+02 
       1.477104874446e-03       5.573642301801e+02 
       1.551900031103e-03       5.828883140933e+02 
       1.643851352426e-03       6.139353531543e+02 
       1.738619485459e-03       6.455688224725e+02 
       1.836004154308e-03       6.776513437391e+02 
       1.935806916530e-03       7.101031904135e+02 
       2.037835045535e-03       7.428546303235e+02 
       2.141904384357e-03       7.758114492471e+02 
       2.247841271252e-03       8.088873533087e+02 
       2.355483679735e-03       8.420113408332e+02 
       2.464681729392e-03       8.751104214498e+02 
       2.575297717944e-03       9.081512735522e+02 
       2.687205807918e-03       9.410805164568e+02 
       2.800291479156e-03       9.738311119099e+02 
       2.914450835526e-03       1.006385962131e+03 
       3.029589833194e-03       1.038694004557e+03 
       3.145623479730e-03       1.070731513893e+03 
       3.262475038667e-03       1.102468218253e+03 
       3.380075262632e-03       1.133879471810e+03 
       3.498361669502e-03       1.164956887372e+03 
       3.617277869682e-03       1.195667602427e+03 
       3.736772948088e-03       1.226020011214e+03 
       3.856800901331e-03       1.255971550106e+03 
       3.977320128544e-03       1.285535872749e+03 
       4.098292973038e-03       1.314699767623e+03 
       4.219685311266e-03       1.343443020625e+03 
       4.341466185208e-03       1.371779015001e+03 
       4.463607474265e-03       1.399687077110e+03 
       4.586083602776e-03       1.427172899935e+03 
       4.708871279537e-03       1.454236000589e+03 
       4.831949265899e-03       1.480412436328e+03 
       4.955298169337e-03       1.508009375487e+03 
       5.078900259654e-03       1.532136235892e+03 
       5.202739305266e-03       1.558407202086e+03 
       5.326800427302e-03       1.583182067577e+03 
       5.451069969467e-03       1.608290359652e+03 
       5.575535381877e-03       1.631434615900e+03 
       5.700185117264e-03       1.655504955807e+03 
       5.825008538135e-03       1.679153780933e+03 
       5.949995833641e-03       1.701742593599e+03 
       6.075137945059e-03       1.724385653941e+03 
       6.200426498907e-03       1.745900338149e+03 
       6.325853746852e-03       1.767631509216e+03 
       6.451412511636e-03       1.788717702002e+03 
       6.577096138385e-03       1.809584603547e+03 
       6.702898450679e-03       1.830022309834e+03 
       6.828813710899e-03       1.849805673466e+03 
       6.954836584367e-03       1.869421138541e+03 
       7.080962106894e-03       1.888577765326e+03 
       7.207185655365e-03       1.907398647228e+03 
       7.333502921050e-03       1.925825092839e+03 
       7.459909885363e-03       1.943838655878e+03 
       7.586402797808e-03       1.961499015407e+03 
       7.712978155908e-03       1.978785459763e+03 
       7.839632686900e-03       1.995716666570e+03 
       7.966363331039e-03       2.012258822364e+03 
       8.093167226340e-03       2.028438502543e+03 
       8.220041694630e-03       2.044348276641e+03 
       8.346984228776e-03       2.059821346482e+03 
       8.473992480980e-03       2.074936665927e+03 
       8.601064252047e-03       2.089776525263e+03 
       8.728197481532e-03       2.104206711934e+03 
       8.855390238677e-03       2.118298321030e+03 
       8.982640714085e-03       2.132056816106e+03 
       9.109947212049e-03       2.145636819819e+03 
       9.237308143488e-03       2.158745198930e+03 
       9.364722019426e-03       2.171525418132e+03 
       9.492187444980e-03       2.184074367422e+03 
       9.619703113808e-03       2.196228129088e+03 
       9.747267802971e-03       2.208067048833e+03 
       9.874880368188e-03       2.219595152839e+03 
       1.000253973944e-02       2.231004689916e+03 
       1.013024491690e-02       2.241940008340e+03 
       1.025799496717e-02       2.252575092459e+03 
       1.038578901976e-02       2.262914512979e+03 
       1.051362626388e-02       2.273059325151e+03 
       1.064150594538e-02       2.282821110963e+03 
       1.076942736401e-02       2.292306552622e+03 
       1.089738987080e-02       2.301500718965e+03 
       1.102539286561e-02       2.310622642944e+03 
       1.115343579496e-02       2.319281165354e+03 
       1.128151814986e-02       2.327669499060e+03 
       1.140963946397e-02       2.335791748716e+03 
       1.153779931168e-02       2.343647665767e+03 
       1.166599730654e-02       2.351335696917e+03 
       1.179423309961e-02       2.358677913619e+03 
       1.192250637809e-02       2.365764976274e+03 
       1.205081686389e-02       2.372602846260e+03 
       1.217916431242e-02       2.379383826722e+03 
       1.230754851144e-02       2.385733907958e+03 
       1.243596927991e-02       2.391840002313e+03 
       1.256442646703e-02       2.397708556811e+03 
       1.269291995132e-02       2.403334922216e+03 
       1.282144963969e-02       2.408836618545e+03 
       1.295001546669e-02       2.414007854185e+03 
       1.307861739376e-02       2.418960476920e+03 
       1.320725540851e-02       2.423683340393e+03 
       1.333592952411e-02       2.428174633773e+03 
       1.346463977870e-02       2.432656856815e+03 
       1.359338623485e-02       2.436720574284e+03 
       1.372216897909e-02       2.440578978796e+03 
       1.385098812139e-02       2.444227367187e+03 
       1.397984379483e-02       2.447666109446e+03 
       1.410873615519e-02       2.450990491025e+03 
       1.423766538058e-02       2.454026401573e+03 
       1.436663167120e-02       2.456859918810e+03 
       1.449563524903e-02       2.459486986993e+03 
       1.462467635757e-02       2.461934452562e+03 
       1.475375526170e-02       2.464183019856e+03 
       1.477104874446e-02       2.464470378533e+03 
       1.488287224741e-02       2.466422046920e+03 
       1.501202762171e-02       2.468303046361e+03 
       1.514122171247e-02       2.469995176666e+03 
       1.527045486833e-02       2.471498475360e+03 
       1.539972745860e-02       2.472825287384e+03 
       1.552903987323e-02       2.473964463279e+03 
       1.565839252276e-02       2.475032960751e+03 
       1.578778583830e-02       2.475833780978e+03 
       1.591722027155e-02       2.476461345042e+03 
       1.604669629485e-02       2.476924187472e+03 
       1.617621440117e-02       2.477208948938e+03 
       1.630577510425e-02       2.477344130134e+03 
       1.643537893861e-02       2.477481822766e+03 
       1.656502645974e-02       2.477293847791e+03 
       1.669471824417e-02       2.476943789935e+03 
       1.682445488959e-02       2.476446565638e+03 
       1.695423701511e-02       2.475792015700e+03 
       1.708406526130e-02       2.474980860041e+03 
       1.721394029052e-02       2.474030221058e+03 
       1.734386278702e-02       2.473005887819e+03 
       1.747383345724e-02       2.471762303748e+03 
       1.760385303003e-02       2.470370031411e+03 
       1.773392225690e-02       2.468846897473e+03 
       1.786404191232e-02       2.467173249472e+03 
       1.799421279401e-02       2.465370075292e+03 
       1.812443572324e-02       2.463429560918e+03 
       1.825471154518e-02       2.461523928030e+03 
       1.838504112920e-02       2.459324798906e+03 
       1.851542536930e-02       2.457004375544e+03 
       1.864586518442e-02       2.454550870837e+03 
       1.877636151889e-02       2.451978971045e+03 
       1.890691534281e-02       2.449279426583e+03 
       1.903752765248e-02       2.446464633755e+03 
       1.916819947087e-02       2.443523667763e+03 
       1.929893184807e-02       2.440557565823e+03 
       1.942972586176e-02       2.437388305468e+03 
       1.956058261776e-02       2.434119473012e+03 
       1.969150325047e-02       2.430727998178e+03 
       1.982248892350e-02       2.427238313827e+03 
       1.995354083016e-02       2.423632804396e+03 
       2.008466019406e-02       2.419925396059e+03 
       2.021584826972e-02       2.416262287127e+03 
       2.034710634318e-02       2.412353864063e+03 
       2.047843573261e-02       2.408348144510e+03 
       2.060983778903e-02       2.404241132949e+03 
       2.074131389694e-02       2.400043727784e+03 
       2.087286547505e-02       2.395747653513e+03 
       2.100449397699e-02       2.391361842071e+03 
       2.113620089207e-02       2.386882185466e+03 
       2.126798774608e-02       2.382316115483e+03 
       2.139985610204e-02       2.377730671374e+03 
       2.153180756106e-02       2.372993847926e+03 
       2.166384376318e-02       2.368170100350e+03 
       2.179596638824e-02       2.363263218791e+03 
       2.192817715680e-02       2.358279087739e+03 
       2.206047783108e-02       2.353211737959e+03 
       2.219287021590e-02       2.348066009893e+03 
       2.232535615967e-02       2.342849004462e+03 
       2.245793755545e-02       2.337682434593e+03 
       2.259061634198e-02       2.332319341241e+03 
       2.272339450477e-02       2.326879171829e+03 
       2.285627407722e-02       2.321375905154e+03 
       2.298925714180e-02       2.315796527173e+03 
       2.312234583121e-02       2.310157263160e+03 
       2.325554232967e-02       2.304445324070e+03 
       2.338884887410e-02       2.298669532540e+03 
       2.352226775554e-02       2.292835659166e+03 
       2.365580132042e-02       2.286935753697e+03 
       2.378945197198e-02       2.281037905883e+03 
       2.392322217173e-02       2.275024768700e+03 
       2.405711444092e-02       2.268948213843e+03 
       2.419113136207e-02       2.262822534450e+03 
       2.432527558055e-02       2.256635355263e+03 
       2.445954980625e-02       2.250394910904e+03 
       2.459395681522e-02       2.244108941049e+03 
       2.472849945144e-02       2.237767453452e+03 
       2.486318062861e-02       2.231379027672e+03 
       2.499800333202e-02       2.225056099961e+03 
       2.513297062047e-02       2.218571167412e+03 
       2.526808562823e-02       2.212046206324e+03 
       2.540335156711e-02       2.205471325146e+03 
       2.553877172861e-02       2.198854584487e+03 
       2.567434948603e-02       2.192198321204e+03 
       2.581008829683e-02       2.185500714366e+03 
       2.594599170491e-02       2.178761842622e+03 
       2.608206334304e-02       2.171987368967e+03 
       2.621830693539e-02       2.165173057715e+03 
       2.635472630013e-02       2.158378826403e+03 
       2.649132535207e-02       2.151496817834e+03 
       2.662810810549e-02       2.144578502254e+03 
       2.676507867699e-02       2.137632318817e+03 
       2.690224128847e-02       2.130648955693e+03 
       2.703960027024e-02       2.123635922153e+03 
       2.717716006421e-02       2.116596260507e+03 
       2.731492522718e-02       2.109527252106e+03 
       2.745290043432e-02       2.102427144867e+03 
       2.759109048270e-02       2.095305654530e+03 
       2.772950029504e-02       2.088155742768e+03 
       2.786813492345e-02       2.081081118144e+03 
       2.800699955353e-02       2.073887027443e+03 
       2.814609950839e-02       2.066666327193e+03 
       2.828544025301e-02       2.059424181041e+03 
       2.842502739869e-02       2.052163448613e+03 
       2.856486670765e-02       2.044882119393e+03 
       2.870496409784e-02       2.037578882765e+03 
       2.884532564797e-02       2.030261938317e+03 
       2.898595760269e-02       2.022923135260e+03 
       2.912686637800e-02       2.015567920613e+03 
       2.926805856684e-02       2.008200980808e+03 
       2.940954094502e-02       2.000856423467e+03 
       2.955132047725e-02       1.993457401992e+03 
       2.969340432349e-02       1.986044253321e+03 
       2.983579984559e-02       1.978621384725e+03 
       2.997851461419e-02       1.971181956711e+03 
       3.012155641585e-02       1.963735406779e+03 
       3.026493326057e-02       1.956276726110e+03 
       3.040865338961e-02       1.948805548909e+03 
       3.055272528365e-02       1.941328859917e+03 
       3.069715767127e-02       1.933842983773e+03 
       3.084195953784e-02       1.926346293027e+03 
       3.098714013487e-02       1.918925517621e+03 
       3.113270898962e-02       1.911417106073e+03 
       3.127867591532e-02       1.903903833199e+03 
       3.142505102177e-02       1.896383662738e+03 
       3.157184472640e-02       1.888862349924e+03 
       3.171906776596e-02       1.881333820857e+03 
       3.186673120865e-02       1.873800956512e+03 
       3.201484646693e-02       1.866268150661e+03 
       3.216342531079e-02       1.858730190340e+03 
       3.231247988189e-02       1.851189845809e+03 
       3.246202270819e-02       1.843650875675e+03 
       3.261206671942e-02       1.836106569350e+03 
       3.276262526326e-02       1.828598957898e+03 
       3.291371212242e-02       1.821054389905e+03 
       3.306534153251e-02       1.813513032801e+03 
       3.321752820088e-02       1.805968827912e+03 
       3.337028732639e-02       1.798426751419e+03 
       3.352363462032e-02       1.790887118389e+03 
       3.367758632830e-02       1.783346011455e+03 
       3.383215925344e-02       1.775807685927e+03 
       3.398737078077e-02       1.768274281357e+03 
       3.414323890295e-02       1.760739453941e+03 
       3.429978224744e-02       1.753208814058e+03 
       3.445702010524e-02       1.745679519272e+03 
       3.461497246120e-02       1.738222815194e+03 
       3.477366002608e-02       1.730702280780e+03 
       3.493310427053e-02       1.723186073405e+03 
       3.509332746096e-02       1.715675336340e+03 
       3.525435269768e-02       1.708166470741e+03 
       3.541620395524e-02       1.700662236511e+03 
       3.557890612521e-02       1.693164860048e+03 
       3.574248506169e-02       1.685669396922e+03 
       3.590696762958e-02       1.678179609050e+03 
       3.607238175592e-02       1.670696367082e+03 
       3.623875648452e-02       1.663214988013e+03 
       3.640612203408e-02       1.655739849897e+03 
       3.657450986023e-02       1.648298734866e+03 
       3.674395272155e-02       1.640835615109e+03 
       3.691448475011e-02       1.633375218949e+03 
       3.708614152679e-02       1.625919796542e+03 
       3.725896016185e-02       1.618471670329e+03 
       3.743297938103e-02       1.611026171911e+03 
       3.760823961787e-02       1.603585754694e+03 
       3.778478311259e-02       1.596151999889e+03 
       3.796265401822e-02       1.588719763404e+03 
       3.814189851456e-02       1.581293103928e+03 
       3.832256493067e-02       1.573869789610e+03 
       3.850470387675e-02       1.566453019950e+03 
       3.868836838607e-02       1.559036974649e+03 
       3.887361406820e-02       1.551676602557e+03 
       3.906049927426e-02       1.544269574492e+03 
       3.924908527562e-02       1.536863684845e+03 
       3.943943645724e-02       1.529461287145e+03 
       3.963162052710e-02       1.522061989285e+03 
       3.982570874339e-02       1.514662275570e+03 
       4.002177616122e-02       1.507264335318e+03 
       4.021990190091e-02       1.499867616982e+03 
       4.042016944021e-02       1.492471881284e+03 
       4.062266693284e-02       1.485073520466e+03 
       4.082748755641e-02       1.477676864404e+03 
       4.103472989293e-02       1.470299561533e+03 
       4.124449834552e-02       1.462896909130e+03 
       4.145690359561e-02       1.455493114571e+03 
       4.167206310529e-02       1.448083709768e+03 
       4.189010167023e-02       1.440669992853e+03 
       4.211115202936e-02       1.433251449102e+03 
       4.233535553827e-02       1.425824457074e+03 
       4.256286291441e-02       1.418389574487e+03 
       4.279383506339e-02       1.410947643817e+03 
       4.302844399698e-02       1.403494374932e+03 
       4.326687385510e-02       1.396028747266e+03 
       4.350932204607e-02       1.388591270647e+03 
       4.375600052160e-02       1.381099328572e+03 
       4.400713720584e-02       1.373592870196e+03 
       4.426297760077e-02       1.366068053805e+03 
       4.452378659441e-02       1.358523872055e+03 
       4.478985050262e-02       1.350958122507e+03 
       4.506147938097e-02       1.343370156461e+03 
       4.533900964969e-02       1.335754912391e+03 
       4.562280708289e-02       1.328113319815e+03 
       4.591327022286e-02       1.320438813745e+03 
       4.621083429225e-02       1.312750233484e+03 
       4.651597569167e-02       1.305005844161e+03 
       4.682921718770e-02       1.297221183051e+03 
       4.715113391898e-02       1.289393756218e+03 
       4.748236037504e-02       1.281516405113e+03 
       4.782359853660e-02       1.273588228400e+03 
       4.817562740890e-02       1.265600186353e+03 
       4.853931423278e-02       1.257550876387e+03 
       4.891562772531e-02       1.249460615792e+03 
       4.930565378725e-02       1.241265759259e+03 
       4.971061422175e-02       1.232985519861e+03 
       5.013188914621e-02       1.224612997867e+03 
       5.057104395346e-02       1.216136423920e+03 
       5.102986190125e-02       1.207546544470e+03 
       5.151038369218e-02       1.198827212967e+03 
       5.201495576583e-02       1.189978282025e+03 
       5.254628947670e-02       1.180952911208e+03 
       5.310753389194e-02       1.171742890740e+03 
       5.370236561796e-02       1.162322569717e+03 
       5.433509984087e-02       1.152658957682e+03 
       5.501082757241e-02       1.142735192995e+03 
       5.573558474913e-02       1.132455525251e+03 
       5.651655891865e-02       1.121779256663e+03 
       5.736233788738e-02       1.110624930796e+03 
       5.828320015262e-02       1.098897941485e+03 
       5.929143590967e-02       1.086437268021e+03 
