# dimensionless total [l(l+1)/2pi] C_l's
# for l=2 to 3100, i.e. number of multipoles equal to 3099
#
# -> if you prefer output in CAMB/HealPix/LensPix units/order, set 'format' to 'camb' in input file
# -> if you don't want to see such a header, set 'headers' to 'no' in input file
# -> for CMB lensing (phi), these are C_l^phi-phi for the lensing potential.
#    Remember the conversion factors:
#    C_l^dd (deflection) = l(l+1) C_l^phi-phi
#    C_l^gg (shear/convergence) = 1/4 (l(l+1))^2 C_l^phi-phi
#
# 1:l     2:TT                     3:EE                     4:TE                     5:BB                     6:phiphi                 7:TPhi                   8:Ephi               
    2       1.406841055680e-10       4.494125433027e-15       3.653115605731e-13       0.000000000000e+00       7.911411569298e-09       4.634645349074e-10      -1.909326418992e-12 
    3       1.332401212555e-10       5.997299494160e-15       4.163337042722e-13       0.000000000000e+00       4.838544436920e-09       3.318236102329e-10      -1.481939252203e-12 
    4       1.260889230895e-10       5.417106297625e-15       3.947180751829e-13       0.000000000000e+00       3.353456576042e-09       2.535726498974e-10      -1.002761058975e-12 
    5       1.206138699152e-10       3.779872909699e-15       3.406028732122e-13       0.000000000000e+00       2.497032305277e-09       2.019280943603e-10      -5.871240381240e-13 
    6       1.168346252263e-10       2.190801607257e-15       2.775499055942e-13       0.000000000000e+00       1.946481952822e-09       1.655275395332e-10      -2.694686844922e-13 
    7       1.143748988130e-10       1.182919640604e-15       2.196677467078e-13       0.000000000000e+00       1.567489063268e-09       1.387059064040e-10      -5.584773418744e-14 
    8       1.128209051146e-10       7.286116824672e-16       1.735466835864e-13       0.000000000000e+00       1.293268274285e-09       1.182490543729e-10       6.395271235820e-14 
    9       1.119856396362e-10       5.692540799891e-16       1.411642081895e-13       0.000000000000e+00       1.087166136478e-09       1.022357444992e-10       1.094099552121e-13 
   10       1.117597389978e-10       4.917359130323e-16       1.218469920181e-13       0.000000000000e+00       9.276880805450e-10       8.947689887737e-11       1.040952316431e-13 
   11       1.119717082251e-10       4.176757326657e-16       1.133965494289e-13       0.000000000000e+00       7.845910812686e-10       7.945286286255e-11       7.141612187309e-14 
   12       1.124518346521e-10       3.557760825077e-16       1.127679199941e-13       0.000000000000e+00       6.850286269649e-10       7.075862119642e-11       3.029981423749e-14 
   13       1.132282699510e-10       3.273174009333e-16       1.170113890271e-13       0.000000000000e+00       6.032306243689e-10       6.360888939329e-11      -5.584382729532e-15 
   14       1.142676586505e-10       3.316608759447e-16       1.240232709729e-13       0.000000000000e+00       5.353703749167e-10       5.735449373289e-11      -2.958682712554e-14 
   15       1.154282045062e-10       3.538456335871e-16       1.322362705701e-13       0.000000000000e+00       4.781853361648e-10       5.205792200695e-11      -3.943844200434e-14 
   16       1.166741249024e-10       3.846883891982e-16       1.405305116453e-13       0.000000000000e+00       4.296691395244e-10       4.752064753029e-11      -3.746341485945e-14 
   17       1.180525340263e-10       4.274220042276e-16       1.486801628997e-13       0.000000000000e+00       3.880628619996e-10       4.355932755155e-11      -2.814681639068e-14 
   18       1.195509115720e-10       4.894267972187e-16       1.569366324019e-13       0.000000000000e+00       3.519461533270e-10       4.003676799326e-11      -1.663533330216e-14 
   19       1.211754074018e-10       5.738010837608e-16       1.654168871146e-13       0.000000000000e+00       3.207749125812e-10       3.693183646305e-11      -6.356900054875e-15 
   20       1.228824545907e-10       6.810985114147e-16       1.741731789888e-13       0.000000000000e+00       2.933719559852e-10       3.418404352577e-11      -2.489297623465e-16 
   21       1.246460612001e-10       8.094078867500e-16       1.833485176805e-13       0.000000000000e+00       2.692787409610e-10       3.175730903539e-11       1.270256808745e-15 
   22       1.264225067188e-10       9.557705531418e-16       1.930459240551e-13       0.000000000000e+00       2.478754299184e-10       2.958211172256e-11      -9.779368250283e-16 
   23       1.282534075594e-10       1.120962684100e-15       2.030154241484e-13       0.000000000000e+00       2.288769544462e-10       2.762329144917e-11      -5.549380355629e-15 
   24       1.301800544604e-10       1.306532700421e-15       2.128336974499e-13       0.000000000000e+00       2.118680605085e-10       2.583639560775e-11      -1.054030414774e-14 
   25       1.321797460761e-10       1.511737080111e-15       2.221577915207e-13       0.000000000000e+00       1.966414873920e-10       2.422179633865e-11      -1.456633247700e-14 
   26       1.341976461517e-10       1.735323030985e-15       2.306532098316e-13       0.000000000000e+00       1.829051105469e-10       2.277426871075e-11      -1.647645043866e-14 
   27       1.362393837652e-10       1.978847522231e-15       2.381130353223e-13       0.000000000000e+00       1.704932415882e-10       2.146292118606e-11      -1.623740062469e-14 
   28       1.383185448566e-10       2.244798224693e-15       2.443947253887e-13       0.000000000000e+00       1.591954486737e-10       2.024221376120e-11      -1.430953379543e-14 
   29       1.404426906572e-10       2.534937351492e-15       2.495069966577e-13       0.000000000000e+00       1.489537204532e-10       1.911010967623e-11      -1.140482558651e-14 
   30       1.426041466991e-10       2.850896744445e-15       2.535388488426e-13       0.000000000000e+00       1.396562142111e-10       1.806976142527e-11      -8.505219354214e-15 
   31       1.447853727926e-10       3.194269208842e-15       2.566026916366e-13       0.000000000000e+00       1.311112299482e-10       1.711553823181e-11      -6.620870635503e-15 
   32       1.469940224428e-10       3.566052412808e-15       2.587332787955e-13       0.000000000000e+00       1.232743611790e-10       1.624134840964e-11      -5.887807804345e-15 
   33       1.492384979432e-10       3.966984019915e-15       2.599535357324e-13       0.000000000000e+00       1.160904649241e-10       1.543357057165e-11      -6.130251257652e-15 
   34       1.515198556262e-10       4.397720406600e-15       2.602676060225e-13       0.000000000000e+00       1.094591775671e-10       1.467414333935e-11      -7.079846265922e-15 
   35       1.538394743426e-10       4.858997859998e-15       2.595431698690e-13       0.000000000000e+00       1.033462195448e-10       1.396238149619e-11      -8.353552953828e-15 
   36       1.561922704554e-10       5.351514666779e-15       2.575851165567e-13       0.000000000000e+00       9.770194169241e-11       1.329983886427e-11      -9.454773776260e-15 
   37       1.585683124597e-10       5.875937409344e-15       2.542004544730e-13       0.000000000000e+00       9.245220014302e-11       1.268506934785e-11      -9.906941461100e-15 
   38       1.609687182353e-10       6.433090647681e-15       2.493233141257e-13       0.000000000000e+00       8.758316107322e-11       1.211674370191e-11      -9.719193929615e-15 
   39       1.633937580629e-10       7.023824067754e-15       2.429304301316e-13       0.000000000000e+00       8.307918737291e-11       1.159096840695e-11      -9.073891767744e-15 
   40       1.658378308064e-10       7.648959388365e-15       2.350084351153e-13       0.000000000000e+00       7.889705630548e-11       1.110003828987e-11      -8.206564236412e-15 
   41       1.682935345182e-10       8.309262377432e-15       2.255553088253e-13       0.000000000000e+00       7.498097861861e-11       1.063497680648e-11      -7.363643940872e-15 
   42       1.707669137349e-10       9.005352330241e-15       2.145838531136e-13       0.000000000000e+00       7.131931740596e-11       1.019492668553e-11      -6.650452490990e-15 
   43       1.732661662080e-10       9.737760052738e-15       2.021203562238e-13       0.000000000000e+00       6.790228525724e-11       9.780273460478e-12      -6.139800062069e-15 
   44       1.757971273370e-10       1.050694792088e-14       1.882044855913e-13       0.000000000000e+00       6.470492872067e-11       9.389923156391e-12      -5.914031620725e-15 
   45       1.783631018061e-10       1.131333538178e-14       1.728694577929e-13       0.000000000000e+00       6.169601946504e-11       9.021906871052e-12      -6.035026606932e-15 
   46       1.809649570247e-10       1.215739310585e-14       1.560739415813e-13       0.000000000000e+00       5.887074156844e-11       8.675706200778e-12      -6.442470278144e-15 
   47       1.836005822498e-10       1.303957080532e-14       1.377509062311e-13       0.000000000000e+00       5.622572346647e-11       8.350409252961e-12      -7.025914754851e-15 
   48       1.862645139382e-10       1.396026864256e-14       1.178258229679e-13       0.000000000000e+00       5.374917917201e-11       8.043959303226e-12      -7.651296396285e-15 
   49       1.889476626857e-10       1.491983527647e-14       9.621613772434e-14       0.000000000000e+00       5.142028293879e-11       7.753071179852e-12      -8.159620933435e-15 
   50       1.916408393646e-10       1.591854881814e-14       7.284576840348e-14       0.000000000000e+00       4.921543021100e-11       7.474227640596e-12      -8.411142096842e-15 
   51       1.943470954073e-10       1.695655813589e-14       4.769445899542e-14       0.000000000000e+00       4.713047475680e-11       7.207181331904e-12      -8.435085152263e-15 
   52       1.970722601489e-10       1.803392224128e-14       2.076091070508e-14       0.000000000000e+00       4.516344662092e-11       6.952258862289e-12      -8.318291298098e-15 
   53       1.998213423486e-10       1.915062329492e-14      -7.950896153088e-15       0.000000000000e+00       4.330789926235e-11       6.709331875751e-12      -8.164082610031e-15 
   54       2.025984359130e-10       2.030656384866e-14      -3.843152236290e-14       0.000000000000e+00       4.155260827842e-11       6.477784259374e-12      -8.093088044392e-15 
   55       2.054066028321e-10       2.150162239010e-14      -7.067275033384e-14       0.000000000000e+00       3.988499161075e-11       6.256794476818e-12      -8.212551598151e-15 
   56       2.082477039083e-10       2.273584245276e-14      -1.046899809970e-13       0.000000000000e+00       3.830305532815e-11       6.046339826617e-12      -8.513435955018e-15 
   57       2.111223608446e-10       2.400928565438e-14      -1.405050858586e-13       0.000000000000e+00       3.680588772409e-11       5.846384224727e-12      -8.949203985803e-15 
   58       2.140298822574e-10       2.532197703469e-14      -1.781401197419e-13       0.000000000000e+00       3.539004495526e-11       5.656564868216e-12      -9.464703818822e-15 
   59       2.169681685116e-10       2.667390456915e-14      -2.176174082795e-13       0.000000000000e+00       3.404939475835e-11       5.476171720485e-12      -9.995766875328e-15 
   60       2.199336165577e-10       2.806501868255e-14      -2.589596354072e-13       0.000000000000e+00       3.277496016690e-11       5.304126996503e-12      -1.046880590496e-14 
   61       2.229225844046e-10       2.949513866715e-14      -3.021824380573e-13       0.000000000000e+00       3.155740813966e-11       5.139295398729e-12      -1.081731005665e-14 
   62       2.259363839521e-10       3.096364849115e-14      -3.472700499326e-13       0.000000000000e+00       3.039552175931e-11       4.981542608740e-12      -1.103656602996e-14 
   63       2.289772450842e-10       3.246973153743e-14      -3.941943210937e-13       0.000000000000e+00       2.928936103689e-11       4.830879062850e-12      -1.114056227879e-14 
   64       2.320468101506e-10       3.401245430194e-14      -4.429215810659e-13       0.000000000000e+00       2.823771487897e-11       4.687140344945e-12      -1.114630733732e-14 
   65       2.351460882894e-10       3.559076295358e-14      -4.934124885916e-13       0.000000000000e+00       2.723802872550e-11       4.549977166182e-12      -1.107396398563e-14 
   66       2.382754097495e-10       3.720347989393e-14      -5.456218813824e-13       0.000000000000e+00       2.628633218772e-11       4.418845344681e-12      -1.094698341524e-14 
   67       2.414343802124e-10       3.884930031715e-14      -5.994986258708e-13       0.000000000000e+00       2.537716668602e-11       4.292995785226e-12      -1.079223939476e-14 
   68       2.446224533728e-10       4.052693321286e-14      -6.549945487368e-13       0.000000000000e+00       2.450504230770e-11       4.171679647247e-12      -1.063450854547e-14 
   69       2.478408855048e-10       4.223556524198e-14      -7.120936688693e-13       0.000000000000e+00       2.366931292088e-11       4.054834521937e-12      -1.047831250996e-14 
   70       2.510910967045e-10       4.397448510615e-14      -7.707886458721e-13       0.000000000000e+00       2.287016343130e-11       3.942519930602e-12      -1.032262064499e-14 
   71       2.543740583441e-10       4.574294767051e-14      -8.310723029215e-13       0.000000000000e+00       2.210713530935e-11       3.834710002564e-12      -1.016616812452e-14 
   72       2.576902632069e-10       4.754017421775e-14      -8.929377087886e-13       0.000000000000e+00       2.137909333846e-11       3.731288958389e-12      -1.000744550453e-14 
   73       2.610396956215e-10       4.936535270209e-14      -9.563782598622e-13       0.000000000000e+00       2.068419236345e-11       3.632046593122e-12      -9.844688287891e-15 
   74       2.644218015964e-10       5.121763800331e-14      -1.021387762171e-12       0.000000000000e+00       2.001984403891e-11       3.536673759519e-12      -9.675866489163e-15 
   75       2.678354589545e-10       5.309615218075e-14      -1.087960513406e-12       0.000000000000e+00       1.938268357752e-11       3.444757851278e-12      -9.498674199427e-15 
   76       2.712795200661e-10       5.499991038143e-14      -1.156084806040e-12       0.000000000000e+00       1.876940415550e-11       3.355891706905e-12      -9.311610120069e-15 
   77       2.747546203250e-10       5.692758240452e-14      -1.225721887602e-12       0.000000000000e+00       1.817950929675e-11       3.270033232857e-12      -9.117469712147e-15 
   78       2.782616467295e-10       5.887768791652e-14      -1.296823294902e-12       0.000000000000e+00       1.761300431954e-11       3.187203458040e-12      -8.920473857325e-15 
   79       2.818011767097e-10       6.084866568985e-14      -1.369337040534e-12       0.000000000000e+00       1.706955799647e-11       3.107376775408e-12      -8.725246125808e-15 
   80       2.853734600035e-10       6.283887233240e-14      -1.443207560000e-12       0.000000000000e+00       1.654848709483e-11       3.030478750982e-12      -8.536824712373e-15 
   81       2.889784005330e-10       6.484658101700e-14      -1.518375658820e-12       0.000000000000e+00       1.604874091693e-11       2.956383932860e-12      -8.360674372396e-15 
   82       2.926155382803e-10       6.686998021090e-14      -1.594778459654e-12       0.000000000000e+00       1.556888584051e-11       2.884913660234e-12      -8.202698357885e-15 
   83       2.962840311638e-10       6.890717240525e-14      -1.672349349414e-12       0.000000000000e+00       1.510708985913e-11       2.815833872403e-12      -8.069250353505e-15 
   84       2.999830439476e-10       7.095625549447e-14      -1.751022590433e-12       0.000000000000e+00       1.466156755321e-11       2.748915001528e-12      -7.965432576976e-15 
   85       3.037130287482e-10       7.301558519800e-14      -1.830748148107e-12       0.000000000000e+00       1.423203362364e-11       2.684127858348e-12      -7.889639763293e-15 
   86       3.074746245661e-10       7.508355401540e-14      -1.911479235828e-12       0.000000000000e+00       1.381846309922e-11       2.621476354083e-12      -7.838128367347e-15 
   87       3.112682580106e-10       7.715851256122e-14      -1.993167894626e-12       0.000000000000e+00       1.342064472293e-11       2.560937173341e-12      -7.806633360617e-15 
   88       3.150941320164e-10       7.923876968364e-14      -2.075765018665e-12       0.000000000000e+00       1.303817323069e-11       2.502458626548e-12      -7.790351363231e-15 
   89       3.189522145606e-10       8.132259258302e-14      -2.159220380752e-12       0.000000000000e+00       1.267044163003e-11       2.445959502391e-12      -7.783923776044e-15 
   90       3.228422273799e-10       8.340820693040e-14      -2.243482657840e-12       0.000000000000e+00       1.231663347881e-11       2.391327920254e-12      -7.781419912701e-15 
   91       3.267636346876e-10       8.549379698614e-14      -2.328499456533e-12       0.000000000000e+00       1.197571516394e-11       2.338420182661e-12      -7.776320131711e-15 
   92       3.307156318905e-10       8.757750571843e-14      -2.414217338589e-12       0.000000000000e+00       1.164642818003e-11       2.287059627708e-12      -7.761498968511e-15 
   93       3.346974182286e-10       8.965745554750e-14      -2.500580871309e-12       0.000000000000e+00       1.132758757602e-11       2.237081249614e-12      -7.730817439951e-15 
   94       3.387090861070e-10       9.173181388973e-14      -2.587529559933e-12       0.000000000000e+00       1.101904541151e-11       2.188475729548e-12      -7.684210540437e-15 
   95       3.427508452810e-10       9.379873773641e-14      -2.675000498884e-12       0.000000000000e+00       1.072085860265e-11       2.141265046117e-12      -7.623337278786e-15 
   96       3.468227435645e-10       9.585635430282e-14      -2.762929317732e-12       0.000000000000e+00       1.043299219405e-11       2.095458125057e-12      -7.550044834004e-15 
   97       3.509246594442e-10       9.790276142988e-14      -2.851250193312e-12       0.000000000000e+00       1.015531584025e-11       2.051050319925e-12      -7.466373776202e-15 
   98       3.550562946945e-10       9.993602798585e-14      -2.939895861842e-12       0.000000000000e+00       9.887600287081e-12       2.008022892785e-12      -7.374563287513e-15 
   99       3.592171669912e-10       1.019541942680e-13      -3.028797631044e-12       0.000000000000e+00       9.629513853135e-12       1.966342494902e-12      -7.277056383006e-15 
  100       3.634066025267e-10       1.039552724043e-13      -3.117885392263e-12       0.000000000000e+00       9.380618911154e-12       1.925960647429e-12      -7.176505131601e-15 
  101       3.676237286234e-10       1.059372467550e-13      -3.207087632582e-12       0.000000000000e+00       9.140368369462e-12       1.886813222098e-12      -7.075775876982e-15 
  102       3.718674663490e-10       1.078980743147e-13      -3.296331446945e-12       0.000000000000e+00       8.908102153384e-12       1.848819921912e-12      -6.977954458518e-15 
  103       3.761365231301e-10       1.098356851135e-13      -3.385542550276e-12       0.000000000000e+00       8.683043686666e-12       1.811883761831e-12      -6.886351432174e-15 
  104       3.804296676600e-10       1.117480364395e-13      -3.474646569300e-12       0.000000000000e+00       8.464475851915e-12       1.775914129960e-12      -6.803782958084e-15 
  105       3.847466128209e-10       1.136332829820e-13      -3.563573090651e-12       0.000000000000e+00       8.252303521251e-12       1.740900637507e-12      -6.730291585551e-15 
  106       3.890872388178e-10       1.154896305281e-13      -3.652252184746e-12       0.000000000000e+00       8.046560809464e-12       1.706848323173e-12      -6.665125879290e-15 
  107       3.934513173046e-10       1.173152851755e-13      -3.740613200778e-12       0.000000000000e+00       7.847236853131e-12       1.673754706464e-12      -6.607434552990e-15 
