# Matter power spectrum P(k) at redshift z=0
# for k=1.04054e-05 to 1.4771 h/Mpc,
# number of wavenumbers equal to 614
#    1:k (h/Mpc)              2:P (Mpc/h)^3        
       1.040542703706e-05       4.926053712255e+01 
       2.326241447396e-05       1.072657040593e+02 
       3.616438160833e-05       1.643638018204e+02 
       4.914591274955e-05       2.211242803517e+02 
       6.224216153969e-05       2.778766769902e+02 
       7.548916324788e-05       3.348717122639e+02 
       8.892415700715e-05       3.923489614780e+02 
       1.025859222653e-04       4.504672307867e+02 
       1.165151337538e-04       5.094941443565e+02 
       1.307547393126e-04       5.695251707285e+02 
       1.453503649156e-04       6.308059211053e+02 
       1.603507511830e-04       6.935053970884e+02 
       1.758082254964e-04       7.579099836503e+02 
       1.917792134689e-04       8.242124652765e+02 
       2.083247928832e-04       8.926580150542e+02 
       2.255112921578e-04       9.635232968364e+02 
       2.434109337749e-04       1.037038650012e+03 
       2.621025206891e-04       1.113425797868e+03 
       2.816721602655e-04       1.193235011601e+03 
       3.022140154442e-04       1.276683472034e+03 
       3.238310662366e-04       1.364160118534e+03 
       3.466358559069e-04       1.456051711255e+03 
       3.707511849382e-04       1.552865074518e+03 
       3.963107018374e-04       1.655484964727e+03 
       4.234593230313e-04       1.763586508799e+03 
       4.523533950302e-04       1.878039662383e+03 
       4.831604919873e-04       1.999036148983e+03 
       5.160587232050e-04       2.128773874400e+03 
       5.512354120154e-04       2.266002722301e+03 
       5.888850054645e-04       2.411789387552e+03 
       6.292060905833e-04       2.567198863505e+03 
       6.723974355395e-04       2.732263573984e+03 
       7.186530491058e-04       2.907858080193e+03 
       7.681563617101e-04       3.094452526097e+03 
       8.210737698233e-04       3.292356162577e+03 
       8.775479353667e-04       3.501549218197e+03 
       9.376913644254e-04       3.722179433277e+03 
       1.001580868800e-03       3.953743428695e+03 
       1.069253506242e-03       4.197011099481e+03 
       1.140704482362e-03       4.451184045870e+03 
       1.215887287119e-03       4.715342733942e+03 
       1.294716068303e-03       4.988927602395e+03 
       1.377069970317e-03       5.271394378730e+03 
       1.462798947532e-03       5.561631011919e+03 
       1.477104874446e-03       5.609561401518e+03 
       1.551730439336e-03       5.858671895783e+03 
       1.643676281375e-03       6.161497555829e+03 
       1.738439308598e-03       6.469324539946e+03 
       1.835819246062e-03       6.781093155452e+03 
       1.935617644004e-03       7.095671876369e+03 
       2.037641762210e-03       7.412320726946e+03 
       2.141707425651e-03       7.730322949646e+03 
       2.247640951682e-03       8.048891169853e+03 
       2.355280291412e-03       8.367231517397e+03 
       2.464475541550e-03       8.684875266307e+03 
       2.575088977235e-03       9.001065951547e+03 
       2.686994739246e-03       9.319538418733e+03 
       2.800078286854e-03       9.647650215576e+03 
       2.914235704746e-03       9.911130056798e+03 
       3.029372931390e-03       1.026503919720e+04 
       3.145404958156e-03       1.052847542590e+04 
       3.262255033849e-03       1.092778485590e+04 
       3.379853897762e-03       1.118573134046e+04 
       3.498139055747e-03       1.163392151705e+04 
       3.617054107395e-03       1.171654891834e+04 
       3.736548127913e-03       1.197201551998e+04 
       3.856575105203e-03       1.243719905615e+04 
       3.977093430595e-03       1.252985064735e+04 
       4.098065440410e-03       1.282281778602e+04 
       4.219457004839e-03       1.325871550998e+04 
       4.341237160253e-03       1.337224533522e+04 
       4.463377781017e-03       1.365606656691e+04 
       4.585853286957e-03       1.378948249443e+04 
       4.708640382814e-03       1.420528070812e+04 
       4.831717826294e-03       1.446898909093e+04 
       4.955066221591e-03       1.461419212097e+04 
       5.078667835551e-03       1.498663916623e+04 
       5.202506433925e-03       1.513715751720e+04 
       5.326567135433e-03       1.537894477710e+04 
       5.450836281601e-03       1.553117342538e+04 
       5.575301320574e-03       1.586692746928e+04 
       5.699950703293e-03       1.602060014961e+04 
       5.824773790641e-03       1.616062984892e+04 
       5.949760770293e-03       1.639511232081e+04 
       6.074902582180e-03       1.654458517178e+04 
       6.200190851595e-03       1.683564629005e+04 
       6.325617829084e-03       1.698259168261e+04 
       6.451176336368e-03       1.718799194097e+04 
       6.576859717633e-03       1.732911389360e+04 
       6.702661795604e-03       1.746899397716e+04 
       6.828576831871e-03       1.772072429025e+04 
       6.954599491034e-03       1.785996719266e+04 
       7.080724808237e-03       1.804266803036e+04 
       7.206948159752e-03       1.817013611851e+04 
       7.333265236283e-03       1.829809851642e+04 
       7.459672018720e-03       1.851757872021e+04 
       7.586164756085e-03       1.863442390159e+04 
       7.712739945453e-03       1.875636585810e+04 
       7.839394313647e-03       1.891362292845e+04 
       7.966124800536e-03       1.902168228478e+04 
       8.092928543780e-03       1.912845664490e+04 
       8.219802864873e-03       1.931604974882e+04 
       8.346745256370e-03       1.941945881572e+04 
       8.473753370186e-03       1.951466614924e+04 
       8.600825006859e-03       1.965199626091e+04 
       8.727958105689e-03       1.974271100379e+04 
       8.855150735684e-03       1.982977438600e+04 
       8.982401087229e-03       1.991428758586e+04 
       9.109707464408e-03       2.007042228378e+04 
       9.237068277947e-03       2.015083448031e+04 
       9.364482038688e-03       2.022581873388e+04 
       9.491947351577e-03       2.033351963691e+04 
       9.619462910110e-03       2.040451500434e+04 
       9.747027491197e-03       2.047086716134e+04 
       9.874639950415e-03       2.053341694432e+04 
       1.000229921761e-02       2.066174888384e+04 
       1.013000429282e-02       2.072141923740e+04 
       1.025775424253e-02       2.077745749330e+04 
       1.038554819614e-02       2.082996453002e+04 
       1.051338534274e-02       2.091140556671e+04 
       1.064126492809e-02       2.095717871651e+04 
       1.076918625184e-02       2.100202252989e+04 
       1.089714866491e-02       2.104145362498e+04 
       1.102515156709e-02       2.114180668501e+04 
       1.115319440479e-02       2.117873789217e+04 
       1.128127666898e-02       2.121318311716e+04 
       1.140939789319e-02       2.124490694663e+04 
       1.153755765177e-02       2.127354506516e+04 
       1.166575555819e-02       2.132659663718e+04 
       1.179399126345e-02       2.135028213793e+04 
       1.192226445466e-02       2.137179611199e+04 
       1.205057485368e-02       2.139068633671e+04 
       1.217892221586e-02       2.146323946530e+04 
       1.230730632890e-02       2.147810025712e+04 
       1.243572701169e-02       2.149031197759e+04 
       1.256418411340e-02       2.150095221477e+04 
       1.269267751247e-02       2.150753417041e+04 
       1.282120711577e-02       2.154024585422e+04 
       1.294977285780e-02       2.154426856152e+04 
       1.307837469994e-02       2.154682270576e+04 
       1.320701262976e-02       2.154670441868e+04 
       1.333568666038e-02       2.154108514242e+04 
       1.346439682990e-02       2.158991415553e+04 
       1.359314320085e-02       2.158404387615e+04 
       1.372192585968e-02       2.157543516691e+04 
       1.385074491635e-02       2.156570988283e+04 
       1.397960050390e-02       2.155385409254e+04 
       1.410849277803e-02       2.156412743240e+04 
       1.423742191685e-02       2.154949175956e+04 
       1.436638812051e-02       2.153373566263e+04 
       1.449539161092e-02       2.151302913531e+04 
       1.462443263159e-02       2.149352001978e+04 
       1.475351144731e-02       2.147093566267e+04 
       1.477104874446e-02       2.146810234056e+04 
       1.488262834406e-02       2.149379565764e+04 
       1.501178362880e-02       2.147026623299e+04 
       1.514097762936e-02       2.144473477828e+04 
       1.527021069435e-02       2.141604405762e+04 
       1.539948319303e-02       2.138696070156e+04 
       1.552879551533e-02       2.135439965480e+04 
       1.565814807173e-02       2.134625060501e+04 
       1.578754129331e-02       2.131322355605e+04 
       1.591697563174e-02       2.127767172213e+04 
       1.604645155930e-02       2.124122388162e+04 
       1.617596956894e-02       2.120270144061e+04 
       1.630553017435e-02       2.116524013897e+04 
       1.643513391002e-02       2.116716696540e+04 
       1.656478133140e-02       2.112678246489e+04 
       1.669447301496e-02       2.108415720020e+04 
       1.682420955838e-02       2.104228720722e+04 
       1.695399158071e-02       2.099833071391e+04 
       1.708381972249e-02       2.095194995139e+04 
       1.721369464603e-02       2.090674302650e+04 
       1.734361703554e-02       2.087863291047e+04 
       1.747358759743e-02       2.083087579497e+04 
       1.760360706049e-02       2.078058783148e+04 
       1.773367617620e-02       2.073153600735e+04 
       1.786379571899e-02       2.067869896166e+04 
       1.799396648652e-02       2.062770297678e+04 
       1.812418930002e-02       2.057379926934e+04 
       1.825446500462e-02       2.055846615818e+04 
       1.838479446965e-02       2.050350429181e+04 
       1.851517858905e-02       2.044963635159e+04 
       1.864561828172e-02       2.039291667134e+04 
       1.877611449194e-02       2.033661450159e+04 
       1.890666818976e-02       2.027831645031e+04 
       1.903728037144e-02       2.022028524183e+04 
       1.916795205988e-02       2.016048279506e+04 
       1.929868430514e-02       2.011992091826e+04 
       1.942947818484e-02       2.005880657588e+04 
       1.956033480473e-02       1.999912362111e+04 
       1.969125529919e-02       1.993636029671e+04 
       1.982224083174e-02       1.987546895415e+04 
       1.995329259565e-02       1.981152649634e+04 
       2.008441181448e-02       1.974918783076e+04 
       2.021559974267e-02       1.971844846187e+04 
       2.034685766622e-02       1.965434292995e+04 
       2.047818690323e-02       1.959014835366e+04 
       2.060958880466e-02       1.952458905689e+04 
       2.074106475495e-02       1.945977863680e+04 
       2.087261617273e-02       1.939347912983e+04 
       2.100424451158e-02       1.932732734296e+04 
       2.113595126074e-02       1.926003239284e+04 
       2.126773794593e-02       1.919282077488e+04 
       2.139960613009e-02       1.914099243769e+04 
       2.153155741426e-02       1.907354468960e+04 
       2.166359343841e-02       1.900507932822e+04 
       2.179571588231e-02       1.893612204874e+04 
       2.192792646644e-02       1.886754806363e+04 
       2.206022695293e-02       1.879788619768e+04 
       2.219261914653e-02       1.872782207357e+04 
       2.232510489556e-02       1.865845006370e+04 
       2.245768609301e-02       1.861695696095e+04 
       2.259036467752e-02       1.854738802203e+04 
       2.272314263450e-02       1.847634412118e+04 
       2.285602199729e-02       1.840661832726e+04 
       2.298900484823e-02       1.833496007240e+04 
       2.312209331997e-02       1.826484787185e+04 
       2.325528959658e-02       1.819292555340e+04 
       2.338859591492e-02       1.812096113203e+04 
       2.352201456590e-02       1.804996687091e+04 
       2.365554789586e-02       1.797764979671e+04 
       2.378919830794e-02       1.791889524836e+04 
       2.392296826352e-02       1.784748530004e+04 
       2.405686028374e-02       1.777470024039e+04 
       2.419087695101e-02       1.770324559643e+04 
       2.432502091059e-02       1.763015935887e+04 
       2.445929487222e-02       1.755705790225e+04 
       2.459370161184e-02       1.748522709771e+04 
       2.472824397330e-02       1.741194717952e+04 
       2.486292487018e-02       1.733955507566e+04 
       2.499774728761e-02       1.729100591125e+04 
       2.513271428426e-02       1.721782970293e+04 
       2.526782899425e-02       1.714570299739e+04 
       2.540309462927e-02       1.707243440623e+04 
       2.553851448063e-02       1.699938738274e+04 
       2.567409192150e-02       1.692676348486e+04 
       2.580983040917e-02       1.685395797481e+04 
       2.594573348737e-02       1.678067818805e+04 
       2.608180478872e-02       1.670834037324e+04 
       2.621804803720e-02       1.663475504783e+04 
       2.635446705080e-02       1.657308415446e+04 
       2.649106574416e-02       1.650045231784e+04 
       2.662784813135e-02       1.642732192764e+04 
       2.676481832878e-02       1.635520531975e+04 
       2.690198055817e-02       1.628194656600e+04 
       2.703933914960e-02       1.620904650843e+04 
       2.717689854477e-02       1.613667644773e+04 
       2.731466330028e-02       1.606419644260e+04 
       2.745263809105e-02       1.599091675142e+04 
       2.759082771394e-02       1.591892014236e+04 
       2.772923709140e-02       1.584634919243e+04 
       2.786787127534e-02       1.579397051429e+04 
       2.800673545105e-02       1.572231828808e+04 
       2.814583494141e-02       1.564981259109e+04 
       2.828517521114e-02       1.557763416392e+04 
       2.842476187124e-02       1.550604260118e+04 
       2.856460068364e-02       1.543455182388e+04 
       2.870469756600e-02       1.536250087424e+04 
       2.884505859673e-02       1.529141390735e+04 
       2.898569002016e-02       1.521965389071e+04 
       2.912659825194e-02       1.514804564653e+04 
       2.926778988471e-02       1.507745579114e+04 
       2.940927169391e-02       1.501495523457e+04 
       2.955105064388e-02       1.494398618727e+04 
       2.969313389423e-02       1.487287567780e+04 
       2.983552880642e-02       1.480266474128e+04 
       2.997824295068e-02       1.473169168847e+04 
       3.012128411315e-02       1.466165751491e+04 
       3.026466030343e-02       1.459147369754e+04 
       3.040837976232e-02       1.452088247002e+04 
       3.055245097005e-02       1.445118327575e+04 
       3.069688265471e-02       1.438147176486e+04 
       3.084168380121e-02       1.431138766877e+04 
       3.098686366051e-02       1.425824011562e+04 
       3.113243175938e-02       1.418876880415e+04 
       3.127839791049e-02       1.411970497863e+04 
       3.142477222306e-02       1.405046912771e+04 
       3.157156511394e-02       1.398211348740e+04 
       3.171878731929e-02       1.391335444246e+04 
       3.186644990665e-02       1.384462374124e+04 
       3.201456428782e-02       1.377668896191e+04 
       3.216314223213e-02       1.370849031081e+04 
       3.231219588051e-02       1.364037432433e+04 
       3.246173776018e-02       1.357304189172e+04 
       3.261178080010e-02       1.350499779262e+04 
       3.276233834716e-02       1.344463658415e+04 
       3.291342418323e-02       1.337716491573e+04 
       3.306505254306e-02       1.331050445553e+04 
       3.321723813307e-02       1.324337786645e+04 
       3.336999615121e-02       1.317669239171e+04 
       3.352334230776e-02       1.311043432227e+04 
       3.367729284733e-02       1.304377147395e+04 
       3.383186457197e-02       1.297745945749e+04 
       3.398707486558e-02       1.291184000619e+04 
       3.414294171965e-02       1.284565488830e+04 
       3.429948376044e-02       1.277995191159e+04 
       3.445672027767e-02       1.271414807970e+04 
       3.461467125485e-02       1.266179531723e+04 
       3.477335740136e-02       1.259661492197e+04 
       3.493280018636e-02       1.253169907989e+04 
       3.509302187478e-02       1.246722319623e+04 
       3.525404556529e-02       1.240247542741e+04 
       3.541589523077e-02       1.233791398107e+04 
       3.557859576103e-02       1.227403813672e+04 
       3.574217300831e-02       1.220979803407e+04 
       3.590665383558e-02       1.214585531689e+04 
       3.607206616783e-02       1.208246541237e+04 
       3.623843904671e-02       1.201869122052e+04 
       3.640580268868e-02       1.195527935334e+04 
       3.657418854697e-02       1.189739834158e+04 
       3.674362937765e-02       1.183472365142e+04 
       3.691415931015e-02       1.177171112938e+04 
       3.708581392257e-02       1.170885271085e+04 
       3.725863032219e-02       1.164660315231e+04 
       3.743264723166e-02       1.158407298617e+04 
       3.760790508122e-02       1.152174969199e+04 
       3.778444610759e-02       1.145996310412e+04 
       3.796231446012e-02       1.139772842541e+04 
       3.814155631469e-02       1.133583140792e+04 
       3.832221999621e-02       1.127396526653e+04 
       3.850435611046e-02       1.121276005954e+04 
       3.868801768604e-02       1.115108214511e+04 
       3.887326032752e-02       1.109967105724e+04 
       3.906014238072e-02       1.103882196822e+04 
       3.924872511136e-02       1.097767475732e+04 
       3.943907289836e-02       1.091682992594e+04 
       3.963125344326e-02       1.085617883490e+04 
       3.982533799737e-02       1.079534473725e+04 
       4.002140160842e-02       1.073466085900e+04 
       4.021952338886e-02       1.067421347130e+04 
       4.041978680795e-02       1.061411687345e+04 
       4.062228001034e-02       1.055357583187e+04 
       4.082709616387e-02       1.049350377701e+04 
       4.103433384002e-02       1.043760400111e+04 
       4.124409743059e-02       1.037741144954e+04 
       4.145649760478e-02       1.031758593862e+04 
       4.167165181144e-02       1.025758368090e+04 
       4.188968483196e-02       1.019770046793e+04 
       4.211072938975e-02       1.013801556606e+04 
       4.233492682356e-02       1.007802147750e+04 
       4.256242783254e-02       1.001802095879e+04 
       4.279339330237e-02       9.958439820051e+03 
       4.302799522306e-02       9.898465562997e+03 
       4.326641771075e-02       9.838453963331e+03 
       4.350885814773e-02       9.786364811875e+03 
       4.375552845718e-02       9.726388380849e+03 
       4.400665653182e-02       9.666610982612e+03 
       4.426248783906e-02       9.606607921706e+03 
       4.452328722872e-02       9.546523334801e+03 
       4.478934097441e-02       9.486191192905e+03 
       4.506095908484e-02       9.426127729266e+03 
       4.533847792814e-02       9.365571301441e+03 
       4.562226322031e-02       9.305228664705e+03 
       4.591271343870e-02       9.244185818032e+03 
       4.621026373321e-02       9.186695356587e+03 
       4.651539042258e-02       9.125466114522e+03 
       4.682861618114e-02       9.063985831353e+03 
       4.715051604315e-02       9.002470161393e+03 
       4.748172437962e-02       8.940332511965e+03 
       4.782294303632e-02       8.878191428251e+03 
       4.817495086417e-02       8.815263168060e+03 
       4.853861492688e-02       8.752275436167e+03 
       4.891490373747e-02       8.694238475998e+03 
       4.930490296053e-02       8.630244200669e+03 
       4.970983412476e-02       8.565485185987e+03 
       5.013107702715e-02       8.500091714394e+03 
       5.057019668468e-02       8.433843189641e+03 
       5.102897591211e-02       8.367161370662e+03 
       5.150945488734e-02       8.299193851838e+03 
       5.201397942530e-02       8.232864586483e+03 
       5.254526013314e-02       8.162787215846e+03 
       5.310644517947e-02       8.091341464247e+03 
       5.370121008541e-02       8.018468780343e+03 
       5.433386872082e-02       7.943817142865e+03 
       5.500951049606e-02       7.871219698054e+03 
       5.573416939588e-02       7.792152841542e+03 
       5.651503059043e-02       7.710104581734e+03 
       5.736067900236e-02       7.624683424973e+03 
       5.828138966609e-02       7.536942139082e+03 
       5.928944870006e-02       7.442092390207e+03 
