# Matter power spectrum P(k) at redshift z=3
# for k=1.04298e-05 to 1.4771 h/Mpc,
# number of wavenumbers equal to 614
#    1:k (h/Mpc)              2:P (Mpc/h)^3        
       1.042983390993e-05       4.791201844713e+00 
       2.328687592201e-05       1.042000606466e+01 
       3.618896300897e-05       1.596121120972e+01 
       4.917068028376e-05       2.147008247988e+01 
       6.226718277896e-05       2.697873414463e+01 
       7.551450775622e-05       3.251163799720e+01 
       8.894989696630e-05       3.808998481085e+01 
       1.026121331311e-04       4.373348013731e+01 
       1.165418949525e-04       4.946127226721e+01 
       1.307821349845e-04       5.529252069697e+01 
       1.453784847149e-04       6.124679659448e+01 
       1.603796911423e-04       6.734439937622e+01 
       1.758380889621e-04       7.360663073352e+01 
       1.918101121155e-04       8.005604819266e+01 
       2.083568478113e-04       8.671870863073e+01 
       2.255446350774e-04       9.361658709997e+01 
       2.434457082741e-04       1.007793216347e+02 
       2.621388835816e-04       1.082369551964e+02 
       2.817102830008e-04       1.160220272941e+02 
       3.022540855575e-04       1.241698241136e+02 
       3.238732887964e-04       1.327186186687e+02 
       3.466804549041e-04       1.417098895635e+02 
       3.707984045314e-04       1.511885022147e+02 
       3.963608073442e-04       1.612028307109e+02 
       4.235126015182e-04       1.718047919502e+02 
       4.524101553164e-04       1.830497565888e+02 
       4.832210638401e-04       1.949962942951e+02 
       5.161234554736e-04       2.077057049640e+02 
       5.513046694308e-04       2.212412846230e+02 
       5.889591638474e-04       2.356655942952e+02 
       6.292855302526e-04       2.510455602001e+02 
       6.724825328273e-04       2.674412564527e+02 
       7.187441660577e-04       2.849081948915e+02 
       7.682538342937e-04       3.035065228266e+02 
       8.211778952466e-04       3.232622353144e+02 
       8.776589593898e-04       3.442108835480e+02 
       9.378094697627e-04       3.663482236353e+02 
       1.001706165787e-03       3.897139063003e+02 
       1.069386026830e-03       4.142388493060e+02 
       1.140844178187e-03       4.399171302119e+02 
       1.216034031917e-03       4.667280107431e+02 
       1.294869664417e-03       4.945611521271e+02 
       1.377230158529e-03       5.233632820639e+02 
       1.462965419152e-03       5.530253222247e+02 
       1.477104874446e-03       5.579013242076e+02 
       1.551902849324e-03       5.834770879778e+02 
       1.643854261361e-03       6.146067419616e+02 
       1.738622478883e-03       6.463034169610e+02 
       1.836007225980e-03       6.785020352261e+02 
       1.935810060336e-03       7.110466124360e+02 
       2.037838255586e-03       7.438922743525e+02 
       2.141907655070e-03       7.769524430504e+02 
       2.247844597390e-03       8.101307952791e+02 
       2.355487056435e-03       8.433755705735e+02 
       2.464685152174e-03       8.766148910283e+02 
       2.575301182703e-03       9.098027719037e+02 
       2.687209310913e-03       9.428660872007e+02 
       2.800295016987e-03       9.757616856123e+02 
       2.914454405113e-03       1.008449597050e+03 
       3.029593431751e-03       1.040904979257e+03 
       3.145627104742e-03       1.073095841567e+03 
       3.262478687863e-03       1.105007215515e+03 
       3.380078933964e-03       1.136580253954e+03 
       3.498365361121e-03       1.167818669023e+03 
       3.617281579919e-03       1.198700367109e+03 
       3.736776675436e-03       1.229217683269e+03 
       3.856804644429e-03       1.259353501699e+03 
       3.977323886159e-03       1.289095288245e+03 
       4.098296744054e-03       1.318437433258e+03 
       4.219689094670e-03       1.347373609296e+03 
       4.341469980083e-03       1.375904799896e+03 
       4.463611279775e-03       1.404009765975e+03 
       4.586087418162e-03       1.431701122474e+03 
       4.708875104106e-03       1.458955460384e+03 
       4.831953099019e-03       1.485877671934e+03 
       4.955302010432e-03       1.511739390388e+03 
       5.078904108194e-03       1.540562130766e+03 
       5.202743160768e-03       1.564215572932e+03 
       5.326804289323e-03       1.590068421287e+03 
       5.451073837598e-03       1.612300253436e+03 
       5.575539255744e-03       1.641943883700e+03 
       5.700188996522e-03       1.663194723906e+03 
       5.825012422466e-03       1.683437165308e+03 
       5.949999722752e-03       1.708095055580e+03 
       6.075141838678e-03       1.728101520284e+03 
       6.200430396784e-03       1.755737603124e+03 
       6.325857648754e-03       1.775230004515e+03 
       6.451416417349e-03       1.797961340430e+03 
       6.577100047709e-03       1.816792569353e+03 
       6.702902363428e-03       1.835551377587e+03 
       6.828817626901e-03       1.860325134108e+03 
       6.954840503463e-03       1.878633407340e+03 
       7.080966028934e-03       1.899248244671e+03 
       7.207189580209e-03       1.916668325957e+03 
       7.333506848570e-03       1.934076646500e+03 
       7.459913815437e-03       1.956043964426e+03 
       7.586406730324e-03       1.972494956609e+03 
       7.712982090760e-03       1.989129727243e+03 
       7.839636623990e-03       2.007311185651e+03 
       7.966367270275e-03       2.022985333298e+03 
       8.093171167636e-03       2.038469869946e+03 
       8.220045637905e-03       2.057353564013e+03 
       8.346988173954e-03       2.072334196015e+03 
       8.473996427990e-03       2.086820953634e+03 
       8.601068200824e-03       2.102864136860e+03 
       8.728201432013e-03       2.116847312542e+03 
       8.855394190804e-03       2.130530879813e+03 
       8.982644667803e-03       2.143978612585e+03 
       9.109951167309e-03       2.159718501342e+03 
       9.237312100240e-03       2.172599293529e+03 
       9.364725977625e-03       2.185126908895e+03 
       9.492191404585e-03       2.198492121644e+03 
       9.619707074779e-03       2.210516238580e+03 
       9.747271765272e-03       2.222214010407e+03 
       9.874884331784e-03       2.233622124516e+03 
       1.000254370430e-02       2.246588454987e+03 
       1.013024888300e-02       2.257475354006e+03 
       1.025799893447e-02       2.268074695474e+03 
       1.038579298824e-02       2.278388315744e+03 
       1.051363023351e-02       2.289165433049e+03 
       1.064150991614e-02       2.298893128665e+03 
       1.076943133589e-02       2.308419075790e+03 
       1.089739384376e-02       2.317615903618e+03 
       1.102539683965e-02       2.327820832913e+03 
       1.115343977005e-02       2.336527283412e+03 
       1.128152212600e-02       2.344981840203e+03 
       1.140964344113e-02       2.353183962226e+03 
       1.153780328986e-02       2.361130572076e+03 
       1.166600128572e-02       2.369251986835e+03 
       1.179423707979e-02       2.376685285547e+03 
       1.192251035924e-02       2.383884477794e+03 
       1.205082084602e-02       2.390839547455e+03 
       1.217916829553e-02       2.398343051252e+03 
       1.230755249550e-02       2.404800458520e+03 
       1.243597326493e-02       2.411019019438e+03 
       1.256443045301e-02       2.417020643860e+03 
       1.269292393824e-02       2.422761786711e+03 
       1.282145362756e-02       2.428620600327e+03 
       1.295001945551e-02       2.433930564047e+03 
       1.307862138352e-02       2.439026786484e+03 
       1.320725939921e-02       2.443894855388e+03 
       1.333593351576e-02       2.448499911313e+03 
       1.346464377130e-02       2.453472959901e+03 
       1.359339022840e-02       2.457679198579e+03 
       1.372217297359e-02       2.461668835713e+03 
       1.385099211685e-02       2.465459044413e+03 
       1.397984779125e-02       2.469041329130e+03 
       1.410874015257e-02       2.472626302939e+03 
       1.423766937894e-02       2.475805887360e+03 
       1.436663567054e-02       2.478799193886e+03 
       1.449563924935e-02       2.481562010059e+03 
       1.462468035889e-02       2.484160990215e+03 
       1.475375926402e-02       2.486557374148e+03 
       1.477104874446e-02       2.486867173767e+03 
       1.488287625074e-02       2.489094743954e+03 
       1.501203162606e-02       2.491123866520e+03 
       1.514122571785e-02       2.492961145153e+03 
       1.527045887475e-02       2.494607218462e+03 
       1.539973146608e-02       2.496081609556e+03 
       1.552904388178e-02       2.497364982467e+03 
       1.565839653239e-02       2.498632597267e+03 
       1.578778984902e-02       2.499582345686e+03 
       1.591722428339e-02       2.500352527816e+03 
       1.604670030781e-02       2.500958900241e+03 
       1.617621841527e-02       2.501394404708e+03 
       1.630577911950e-02       2.501681887788e+03 
       1.643538295504e-02       2.502006554334e+03 
       1.656503047736e-02       2.501961634649e+03 
       1.669472226299e-02       2.501750675497e+03 
       1.682445890964e-02       2.501398829207e+03 
       1.695424103640e-02       2.500887668317e+03 
       1.708406928386e-02       2.500217665015e+03 
       1.721394431437e-02       2.499411779346e+03 
       1.734386681218e-02       2.498530641108e+03 
       1.747383748373e-02       2.497426695027e+03 
       1.760385705787e-02       2.496172408459e+03 
       1.773392628612e-02       2.494789548506e+03 
       1.786404594295e-02       2.493251948310e+03 
       1.799421682607e-02       2.491592492607e+03 
       1.812443975675e-02       2.489787805112e+03 
       1.825471558017e-02       2.487989062605e+03 
       1.838504516570e-02       2.485919173092e+03 
       1.851542940733e-02       2.483730438506e+03 
       1.864586922402e-02       2.481404928172e+03 
       1.877636556009e-02       2.478959078339e+03 
       1.890691938563e-02       2.476384672328e+03 
       1.903753169696e-02       2.473694196402e+03 
       1.916820351704e-02       2.470879450802e+03 
       1.929893589596e-02       2.468006347826e+03 
       1.942972991141e-02       2.464956689832e+03 
       1.956058666919e-02       2.461801971912e+03 
       1.969150730373e-02       2.458525611078e+03 
       1.982249297863e-02       2.455148930350e+03 
       1.995354488719e-02       2.451653980416e+03 
       2.008466425303e-02       2.448061177412e+03 
       2.021585233067e-02       2.444441036627e+03 
       2.034711040614e-02       2.440635002346e+03 
       2.047843979764e-02       2.436729277032e+03 
       2.060984185616e-02       2.432720806447e+03 
       2.074131796622e-02       2.428619209694e+03 
       2.087286954652e-02       2.424418186441e+03 
       2.100449805069e-02       2.420124946547e+03 
       2.113620496806e-02       2.415736625314e+03 
       2.126799182440e-02       2.411259253834e+03 
       2.139986018275e-02       2.406725001475e+03 
       2.153181164420e-02       2.402071353027e+03 
       2.166384784880e-02       2.397329412514e+03 
       2.179597047639e-02       2.392503358374e+03 
       2.192818124755e-02       2.387595643118e+03 
       2.206048192447e-02       2.382605420847e+03 
       2.219287431199e-02       2.377535123752e+03 
       2.232536025852e-02       2.372390432288e+03 
       2.245794165713e-02       2.367218109037e+03 
       2.259062044654e-02       2.361921670805e+03 
       2.272339861227e-02       2.356548762418e+03 
       2.285627818773e-02       2.351108173084e+03 
       2.298926125538e-02       2.345593223399e+03 
       2.312234994794e-02       2.340013597413e+03 
       2.325554644960e-02       2.334364690010e+03 
       2.338885299732e-02       2.328648506667e+03 
       2.352227188211e-02       2.322870554647e+03 
       2.365580545041e-02       2.317027286675e+03 
       2.378945610547e-02       2.311142038152e+03 
       2.392322630880e-02       2.305179114869e+03 
       2.405711858165e-02       2.299154330540e+03 
       2.419113550653e-02       2.293075009392e+03 
       2.432527972884e-02       2.286936727936e+03 
       2.445955395845e-02       2.280744002773e+03 
       2.459396097141e-02       2.274500273176e+03 
       2.472850361172e-02       2.268201579847e+03 
       2.486318479307e-02       2.261853972304e+03 
       2.499800750075e-02       2.255486174137e+03 
       2.513297479356e-02       2.249038812325e+03 
       2.526808980578e-02       2.242546313428e+03 
       2.540335574924e-02       2.236005771271e+03 
       2.553877591540e-02       2.229421048886e+03 
       2.567435367760e-02       2.222793652742e+03 
       2.581009249329e-02       2.216123678507e+03 
       2.594599590636e-02       2.209412227170e+03 
       2.608206754960e-02       2.202662112063e+03 
       2.621831114718e-02       2.195870889594e+03 
       2.635473051727e-02       2.189055788269e+03 
       2.649132957469e-02       2.182192062316e+03 
       2.662811233370e-02       2.175291978013e+03 
       2.676508291093e-02       2.168359331595e+03 
       2.690224552827e-02       2.161391832650e+03 
       2.703960451604e-02       2.154392392085e+03 
       2.717716431614e-02       2.147362732734e+03 
       2.731492948539e-02       2.140302811773e+03 
       2.745290469896e-02       2.133212895008e+03 
       2.759109475393e-02       2.126096321682e+03 
       2.772950457299e-02       2.118951940226e+03 
       2.786813920830e-02       2.111799749950e+03 
       2.800700384543e-02       2.104604971505e+03 
       2.814610380752e-02       2.097385211512e+03 
       2.828544455954e-02       2.090142254351e+03 
       2.842503171279e-02       2.082877583854e+03 
       2.856487102950e-02       2.075591372363e+03 
       2.870496842764e-02       2.068283506405e+03 
       2.884532998590e-02       2.060957730260e+03 
       2.898596194896e-02       2.053611998334e+03 
       2.912687073279e-02       2.046248505390e+03 
       2.926806293038e-02       2.038868862812e+03 
       2.940954531751e-02       2.031478655194e+03 
       2.955132485891e-02       2.024066576416e+03 
       2.969340871455e-02       2.016639646187e+03 
       2.983580424629e-02       2.009199364838e+03 
       2.997851902475e-02       2.001744741171e+03 
       3.012156083653e-02       1.994278569308e+03 
       3.026493769161e-02       1.986800185026e+03 
       3.040865783129e-02       1.979310437860e+03 
       3.055272973622e-02       1.971811096938e+03 
       3.069716213501e-02       1.964301567013e+03 
       3.084196401304e-02       1.956782886652e+03 
       3.098714462182e-02       1.949267378285e+03 
       3.113271348862e-02       1.941732860470e+03 
       3.127868042668e-02       1.934191292502e+03 
       3.142505554579e-02       1.926642818540e+03 
       3.157184926343e-02       1.919089206590e+03 
       3.171907231634e-02       1.911529687946e+03 
       3.186673577273e-02       1.903965132019e+03 
       3.201485104505e-02       1.896396993592e+03 
       3.216342990335e-02       1.888824725502e+03 
       3.231248448926e-02       1.881249188854e+03 
       3.246202733077e-02       1.873671452220e+03 
       3.261207135760e-02       1.866090643893e+03 
       3.276262991748e-02       1.858512677471e+03 
       3.291371679312e-02       1.850928887658e+03 
       3.306534622013e-02       1.843344813520e+03 
       3.321753290588e-02       1.835759752789e+03 
       3.337029204926e-02       1.828174759232e+03 
       3.352363936156e-02       1.820590263792e+03 
       3.367759108842e-02       1.813006000925e+03 
       3.383216403297e-02       1.805422779048e+03 
       3.398737558026e-02       1.797841450345e+03 
       3.414324372296e-02       1.790261151499e+03 
       3.429978708858e-02       1.782682969327e+03 
       3.445702496811e-02       1.775106932279e+03 
       3.461497734643e-02       1.767540258376e+03 
       3.477366493434e-02       1.759969584323e+03 
       3.493310920248e-02       1.752402050949e+03 
       3.509333241732e-02       1.744837820048e+03 
       3.525435767918e-02       1.737276674574e+03 
       3.541620896263e-02       1.729719427267e+03 
       3.557891115929e-02       1.722165955305e+03 
       3.574249012328e-02       1.714616012642e+03 
       3.590697271953e-02       1.707070234610e+03 
       3.607238687511e-02       1.699528714029e+03 
       3.623876163387e-02       1.691991030127e+03 
       3.640612721456e-02       1.684457772723e+03 
       3.657451507284e-02       1.676931285276e+03 
       3.674395796732e-02       1.669406740771e+03 
       3.691449003013e-02       1.661886353788e+03 
       3.708614684219e-02       1.654370305138e+03 
       3.725896551381e-02       1.646858806916e+03 
       3.743298477078e-02       1.639351310724e+03 
       3.760824504669e-02       1.631848024418e+03 
       3.778478858183e-02       1.624348935245e+03 
       3.796265952928e-02       1.616853408834e+03 
       3.814190406891e-02       1.609361616172e+03 
       3.832257052986e-02       1.601873426975e+03 
       3.850470952238e-02       1.594388844694e+03 
       3.868837407984e-02       1.586907207979e+03 
       3.887361981187e-02       1.579432592135e+03 
       3.906050506969e-02       1.571956595084e+03 
       3.924909112478e-02       1.564482669878e+03 
       3.943944236217e-02       1.557010796207e+03 
       3.963162648998e-02       1.549540479369e+03 
       3.982571476648e-02       1.542071001873e+03 
       4.002178224691e-02       1.534602266174e+03 
       4.021990805174e-02       1.527133683839e+03 
       4.042017565885e-02       1.519664797558e+03 
       4.062267322211e-02       1.512194773336e+03 
       4.082749391929e-02       1.504723425932e+03 
       4.103473633258e-02       1.497251290827e+03 
       4.124450486528e-02       1.489774699151e+03 
       4.145691019903e-02       1.482294475480e+03 
       4.167206979613e-02       1.474809504419e+03 
       4.189010845251e-02       1.467319333527e+03 
       4.211115890734e-02       1.459822962048e+03 
       4.233536251648e-02       1.452319135619e+03 
       4.256286999770e-02       1.444806967165e+03 
       4.279384225695e-02       1.437285473293e+03 
       4.302845130633e-02       1.429753191478e+03 
       4.326688128618e-02       1.422208873496e+03 
       4.350932960524e-02       1.414654079650e+03 
       4.375600821571e-02       1.407081626113e+03 
       4.400714504225e-02       1.399492819973e+03 
       4.426298558741e-02       1.391885783030e+03 
       4.452379473985e-02       1.384258689490e+03 
       4.478985881613e-02       1.376609666324e+03 
       4.506148787260e-02       1.368936615614e+03 
       4.533901833035e-02       1.361237074884e+03 
       4.562281596447e-02       1.353508849914e+03 
       4.591327931831e-02       1.345748872675e+03 
       4.621084361575e-02       1.337955673001e+03 
       4.651598525874e-02       1.330123640580e+03 
       4.682922701540e-02       1.322250529564e+03 
       4.715114402611e-02       1.314332614355e+03 
       4.748237078235e-02       1.306365571429e+03 
       4.782360926710e-02       1.298345058390e+03 
       4.817563848817e-02       1.290265630807e+03 
       4.853932568932e-02       1.282122149149e+03 
       4.891563959103e-02       1.273910091829e+03 
       4.930566609798e-02       1.265618586990e+03 
       4.971062701788e-02       1.257241558795e+03 
       5.013190247345e-02       1.248770148663e+03 
       5.057105786377e-02       1.240194062553e+03 
       5.102987645394e-02       1.231501650627e+03 
       5.151039895531e-02       1.222679166887e+03 
       5.201497181782e-02       1.213711725833e+03 
       5.254630640840e-02       1.204578659999e+03 
       5.310755180913e-02       1.195258495708e+03 
       5.370238464446e-02       1.185724296460e+03 
       5.433512012238e-02       1.175943153490e+03 
       5.501084928126e-02       1.165876071727e+03 
       5.573560809009e-02       1.155469157424e+03 
       5.651658413601e-02       1.144659488531e+03 
       5.736236527337e-02       1.133364209271e+03 
       5.828323005703e-02       1.121476084323e+03 
       5.929146875007e-02       1.108851004875e+03 
