# Matter power spectrum P(k) at redshift z=3
# for k=1.04277e-05 to 1.4771 h/Mpc,
# number of wavenumbers equal to 614
#    1:k (h/Mpc)              2:P (Mpc/h)^3        
       1.042773370306e-05       4.791457492649e+00 
       2.328477105950e-05       1.042168067204e+01 
       3.618684786546e-05       1.596426898215e+01 
       4.916854916505e-05       2.147450816521e+01 
       6.226502987154e-05       2.698452208573e+01 
       7.551232707547e-05       3.251878904648e+01 
       8.894768230270e-05       3.809850505661e+01 
       1.026098779938e-04       4.374338028827e+01 
       1.165395925094e-04       4.947256734126e+01 
       1.307797779983e-04       5.530522987540e+01 
       1.453760654744e-04       6.126094317754e+01 
       1.603772013878e-04       6.736001080617e+01 
       1.758355198053e-04       7.362373866626e+01 
       1.918074539523e-04       8.007468860429e+01 
       2.083540902270e-04       8.673692397672e+01 
       2.255417667452e-04       9.363625424652e+01 
       2.434427168463e-04       1.008004821806e+02 
       2.621357555733e-04       1.082596545318e+02 
       2.817070036690e-04       1.160463145791e+02 
       3.022506387764e-04       1.241957521917e+02 
       3.238696569331e-04       1.327462438828e+02 
       3.466766186988e-04       1.417392714396e+02 
       3.707943429912e-04       1.512197029634e+02 
       3.963564976575e-04       1.612359144886e+02 
       4.235080190042e-04       1.718398238039e+02 
       4.524052734250e-04       1.830868009968e+02 
       4.832158542215e-04       1.950354131957e+02 
       5.161178881387e-04       2.077469551502e+02 
       5.512987130271e-04       2.212847143752e+02 
       5.889527860710e-04       2.357129219893e+02 
       6.292786984153e-04       2.510953509578e+02 
       6.724752145866e-04       2.674935451325e+02 
       7.187363303024e-04       2.849646973201e+02 
       7.682454521582e-04       3.035592425100e+02 
       8.211689412007e-04       3.233182896526e+02 
       8.776494123298e-04       3.442710736083e+02 
       9.377993140081e-04       3.664301321557e+02 
       1.001695391882e-03       3.898000822072e+02 
       1.069374632060e-03       4.143599456862e+02 
       1.140832166743e-03       4.400674466293e+02 
       1.216021414686e-03       4.668796891000e+02 
       1.294856458423e-03       4.947168128104e+02 
       1.377216386088e-03       5.235272061524e+02 
       1.462951106831e-03       5.532029669951e+02 
       1.477104874446e-03       5.580716489585e+02 
       1.551888026811e-03       5.836758573753e+02 
       1.643838960347e-03       6.147958629046e+02 
       1.738606732030e-03       6.465029119977e+02 
       1.835991066032e-03       6.786547141832e+02 
       1.935793519393e-03       7.112073848682e+02 
       2.037821364555e-03       7.440636059228e+02 
       2.141890443276e-03       7.771100204754e+02 
       2.247827092331e-03       8.102959476360e+02 
       2.355469283649e-03       8.435319827929e+02 
       2.464667135197e-03       8.767713903625e+02 
       2.575282943097e-03       9.099361464253e+02 
       2.687190868338e-03       9.429886512256e+02 
       2.800276389304e-03       9.758881099977e+02 
       2.914435608507e-03       1.008578594970e+03 
       3.029574480860e-03       1.041030750281e+03 
       3.145608012786e-03       1.073210572939e+03 
       3.262459466776e-03       1.105096658388e+03 
       3.380059594512e-03       1.136670551441e+03 
       3.498345913022e-03       1.167900839512e+03 
       3.617262031943e-03       1.198775975895e+03 
       3.736757035507e-03       1.229283670518e+03 
       3.856784919707e-03       1.259404051269e+03 
       3.977304083123e-03       1.289130501738e+03 
       4.098276868573e-03       1.318458322072e+03 
       4.219669152064e-03       1.347382637189e+03 
       4.341449975183e-03       1.375884914365e+03 
       4.463591216972e-03       1.403970273636e+03 
       4.586067301450e-03       1.431635077656e+03 
       4.708854937127e-03       1.458873873044e+03 
       4.831932885097e-03       1.485710961943e+03 
       4.955281752602e-03       1.511935697184e+03 
       5.078883809234e-03       1.538696878791e+03 
       5.202722823223e-03       1.563698474126e+03 
       5.326783915527e-03       1.589008559916e+03 
       5.451053429695e-03       1.612978763587e+03 
       5.575518815705e-03       1.638738404154e+03 
       5.700168526162e-03       1.661836743605e+03 
       5.824991923458e-03       1.684349351277e+03 
       5.949979196640e-03       1.707798482970e+03 
       6.075121286889e-03       1.729648769112e+03 
       6.200409820637e-03       1.753336064994e+03 
       6.325837049470e-03       1.774446050505e+03 
       6.451395796061e-03       1.796174254578e+03 
       6.577079405466e-03       1.816520166026e+03 
       6.702881701206e-03       1.836556138525e+03 
       6.828796945606e-03       1.857994482094e+03 
       6.954819803937e-03       1.877331830464e+03 
       7.080945311963e-03       1.897039910006e+03 
       7.207168846525e-03       1.915580754298e+03 
       7.333486098853e-03       1.933832405578e+03 
       7.459893050324e-03       1.953104787607e+03 
       7.586385950408e-03       1.970556241240e+03 
       7.712961296596e-03       1.987782083087e+03 
       7.839615816097e-03       2.005191924008e+03 
       7.966346449137e-03       2.021625580096e+03 
       8.093150333707e-03       2.037740854890e+03 
       8.220024791610e-03       2.054587229596e+03 
       8.346967315690e-03       2.070057176911e+03 
       8.473975558130e-03       2.085135232642e+03 
       8.601047319716e-03       2.100425139456e+03 
       8.728180539984e-03       2.114866496635e+03 
       8.855373288160e-03       2.128981634499e+03 
       8.982623754832e-03       2.142795683384e+03 
       9.109930244279e-03       2.157064158511e+03 
       9.237291167404e-03       2.170242902013e+03 
       9.364705035219e-03       2.183092435840e+03 
       9.492170452830e-03       2.195978885536e+03 
       9.619686113882e-03       2.208229880018e+03 
       9.747250795426e-03       2.220165464320e+03 
       9.874863353172e-03       2.231798355709e+03 
       1.000252271709e-02       2.243727737921e+03 
       1.013022788735e-02       2.254780457645e+03 
       1.025797793053e-02       2.265537819847e+03 
       1.038577197615e-02       2.276001710047e+03 
       1.051360921339e-02       2.286431171549e+03 
       1.064148888812e-02       2.296315812814e+03 
       1.076941030007e-02       2.305942786335e+03 
       1.089737280025e-02       2.315269356625e+03 
       1.102537578854e-02       2.324778345867e+03 
       1.115341871142e-02       2.333573751120e+03 
       1.128150105994e-02       2.342104002237e+03 
       1.140962236771e-02       2.350369863976e+03 
       1.153778220915e-02       2.358373800766e+03 
       1.166598019778e-02       2.366287379333e+03 
       1.179421598467e-02       2.373772285421e+03 
       1.192248925700e-02       2.381011583102e+03 
       1.205079973669e-02       2.387999953906e+03 
       1.217914717914e-02       2.395069998944e+03 
       1.230753137210e-02       2.401561057016e+03 
       1.243595213454e-02       2.407810142600e+03 
       1.256440931565e-02       2.413828100438e+03 
       1.269290279393e-02       2.419597610904e+03 
       1.282143247631e-02       2.425290270469e+03 
       1.294999829733e-02       2.430603734453e+03 
       1.307860021842e-02       2.435700663007e+03 
       1.320723822719e-02       2.440566520665e+03 
       1.333591233680e-02       2.445190203084e+03 
       1.346462258540e-02       2.449890400820e+03 
       1.359336903556e-02       2.454097337827e+03 
       1.372215177378e-02       2.458080408473e+03 
       1.385097091005e-02       2.461861375363e+03 
       1.397982657745e-02       2.465434693489e+03 
       1.410871893173e-02       2.468917612207e+03 
       1.423764815102e-02       2.472082294284e+03 
       1.436661443552e-02       2.475054187425e+03 
       1.449561800719e-02       2.477806735335e+03 
       1.462465910955e-02       2.480380668296e+03 
       1.475373800745e-02       2.482752845464e+03 
       1.477104874446e-02       2.483058262074e+03 
       1.488285498689e-02       2.485153039787e+03 
       1.501201035488e-02       2.487157215701e+03 
       1.514120443929e-02       2.488971606589e+03 
       1.527043758875e-02       2.490593682264e+03 
       1.539971017257e-02       2.492042009626e+03 
       1.552902258069e-02       2.493300816533e+03 
       1.565837522366e-02       2.494504775072e+03 
       1.578776853258e-02       2.495424296982e+03 
       1.591720295916e-02       2.496167054905e+03 
       1.604667897571e-02       2.496739846440e+03 
       1.617619707522e-02       2.497144120786e+03 
       1.630575777141e-02       2.497395673556e+03 
       1.643536159882e-02       2.497659812010e+03 
       1.656500911292e-02       2.497583426208e+03 
       1.669470089024e-02       2.497342316484e+03 
       1.682443752848e-02       2.496957889521e+03 
       1.695421964672e-02       2.496412427144e+03 
       1.708404788556e-02       2.495708847143e+03 
       1.721392290732e-02       2.494866868495e+03 
       1.734384539628e-02       2.493953463668e+03 
       1.747381605886e-02       2.492814409793e+03 
       1.760383562392e-02       2.491526354678e+03 
       1.773390484295e-02       2.490107388053e+03 
       1.786402449043e-02       2.488532591109e+03 
       1.799419536407e-02       2.486836876013e+03 
       1.812441828514e-02       2.484992877208e+03 
       1.825469409880e-02       2.483186911680e+03 
       1.838502367444e-02       2.481082021656e+03 
       1.851540790602e-02       2.478857238086e+03 
       1.864584771251e-02       2.476494630927e+03 
       1.877634403822e-02       2.474013088859e+03 
       1.890689785324e-02       2.471401771284e+03 
       1.903751015388e-02       2.468675024491e+03 
       1.916818196311e-02       2.465821911002e+03 
       1.929891433099e-02       2.462937726100e+03 
       1.942970833524e-02       2.459850805617e+03 
       1.956056508163e-02       2.456661304590e+03 
       1.969148570459e-02       2.453346971768e+03 
       1.982247136771e-02       2.449935152061e+03 
       1.995352326429e-02       2.446401903561e+03 
       2.008464261796e-02       2.442776301936e+03 
       2.021583068321e-02       2.439179293798e+03 
       2.034708874609e-02       2.435338432701e+03 
       2.047841812476e-02       2.431398608082e+03 
       2.060982017025e-02       2.427354857896e+03 
       2.074129626703e-02       2.423219562785e+03 
       2.087284783382e-02       2.418983355437e+03 
       2.100447632424e-02       2.414655739863e+03 
       2.113618322762e-02       2.410230079230e+03 
       2.126797006971e-02       2.405718571310e+03 
       2.139983841354e-02       2.401182024378e+03 
       2.153178986022e-02       2.396498562971e+03 
       2.166382604977e-02       2.391723555040e+03 
       2.179594866203e-02       2.386863158601e+03 
       2.192815941758e-02       2.381921237070e+03 
       2.206046007859e-02       2.376896582186e+03 
       2.219285244991e-02       2.371792784577e+03 
       2.232533837993e-02       2.366616484476e+03 
       2.245791976170e-02       2.361486813816e+03 
       2.259059853397e-02       2.356160591753e+03 
       2.272337668222e-02       2.350755021475e+03 
       2.285625623986e-02       2.345286107923e+03 
       2.298923928935e-02       2.339738468325e+03 
       2.312232796339e-02       2.334130790520e+03 
       2.325552444617e-02       2.328447957745e+03 
       2.338883097463e-02       2.322700100507e+03 
       2.352224983979e-02       2.316893876456e+03 
       2.365578338807e-02       2.311018183127e+03 
       2.378943402271e-02       2.305143105121e+03 
       2.392320420521e-02       2.299154594525e+03 
       2.405709645681e-02       2.293099225629e+03 
       2.419111336002e-02       2.286994339824e+03 
       2.432525756021e-02       2.280824717575e+03 
       2.445953176725e-02       2.274601722959e+03 
       2.459393875719e-02       2.268332669615e+03 
       2.472848137399e-02       2.262005718982e+03 
       2.486316253135e-02       2.255629699631e+03 
       2.499798521456e-02       2.249316392469e+03 
       2.513295248238e-02       2.242840374689e+03 
       2.526806746909e-02       2.236325199418e+03 
       2.540333338650e-02       2.229757786780e+03 
       2.553875352608e-02       2.223147273831e+03 
       2.567433126113e-02       2.216496212278e+03 
       2.581007004909e-02       2.209800418922e+03 
       2.594597343385e-02       2.203063327853e+03 
       2.608204504817e-02       2.196293062686e+03 
       2.621828861622e-02       2.189476084496e+03 
       2.635470795613e-02       2.182677892108e+03 
       2.649130698273e-02       2.175792242942e+03 
       2.662808971026e-02       2.168868569761e+03 
       2.676506025531e-02       2.161916204630e+03 
       2.690222283978e-02       2.154925028116e+03 
       2.703958179396e-02       2.147902383861e+03 
       2.717714155972e-02       2.140852430754e+03 
       2.731490669388e-02       2.133771718744e+03 
       2.745288187158e-02       2.126658180441e+03 
       2.759107188989e-02       2.119522724394e+03 
       2.772948167147e-02       2.112357337894e+03 
       2.786811626846e-02       2.105265865668e+03 
       2.800698086640e-02       2.098053828904e+03 
       2.814608078842e-02       2.090813973798e+03 
       2.828542149946e-02       2.083551550592e+03 
       2.842500861080e-02       2.076269618575e+03 
       2.856484788464e-02       2.068966403652e+03 
       2.870494523892e-02       2.061639752989e+03 
       2.884530675233e-02       2.054298946563e+03 
       2.898593866947e-02       2.046934783292e+03 
       2.912684740634e-02       2.039553326931e+03 
       2.926803955586e-02       2.032156679354e+03 
       2.940952189380e-02       2.024786138467e+03 
       2.955130138484e-02       2.017358021874e+03 
       2.969338518893e-02       2.009914770826e+03 
       2.983578066791e-02       2.002461247402e+03 
       2.997849539234e-02       1.994989673129e+03 
       3.012153714879e-02       1.987510552798e+03 
       3.026491394722e-02       1.980018138799e+03 
       3.040863402887e-02       1.972512033705e+03 
       3.055270587436e-02       1.964999599123e+03 
       3.069713821225e-02       1.957477925679e+03 
       3.084194002789e-02       1.949943667392e+03 
       3.098712057273e-02       1.942484288577e+03 
       3.113268937402e-02       1.934936243385e+03 
       3.127865624493e-02       1.927382627664e+03 
       3.142503129521e-02       1.919820967892e+03 
       3.157182494227e-02       1.912257832550e+03 
       3.171904792282e-02       1.904686170360e+03 
       3.186671130501e-02       1.897109223362e+03 
       3.201482650123e-02       1.889531987023e+03 
       3.216340528146e-02       1.881948393301e+03 
       3.231245978728e-02       1.874361607297e+03 
       3.246200254661e-02       1.866775791010e+03 
       3.261204648912e-02       1.859183319678e+03 
       3.276260496244e-02       1.851627707863e+03 
       3.291369174922e-02       1.844033571329e+03 
       3.306532108501e-02       1.836442411481e+03 
       3.321750767708e-02       1.828847243163e+03 
       3.337026672424e-02       1.821253732717e+03 
       3.352361393770e-02       1.813662177205e+03 
       3.367756556301e-02       1.806068091367e+03 
       3.383213840322e-02       1.798476301079e+03 
       3.398734984326e-02       1.790889177765e+03 
       3.414321787571e-02       1.783299420374e+03 
       3.429976112795e-02       1.775713555039e+03 
       3.445699889090e-02       1.768128241160e+03 
       3.461495114930e-02       1.760617814697e+03 
       3.477363861383e-02       1.753040085288e+03 
       3.493308275500e-02       1.745466191544e+03 
       3.509330583916e-02       1.737897408353e+03 
       3.525433096647e-02       1.730329470322e+03 
       3.541618211137e-02       1.722765675267e+03 
       3.557888416532e-02       1.715208521332e+03 
       3.574246298227e-02       1.707652226545e+03 
       3.590694542699e-02       1.700101177764e+03 
       3.607235942638e-02       1.692556377743e+03 
       3.623873402408e-02       1.685012391010e+03 
       3.640609943866e-02       1.677474273853e+03 
       3.657448712556e-02       1.669971305158e+03 
       3.674392984318e-02       1.662444391546e+03 
       3.691446172341e-02       1.654919286812e+03 
       3.708611834694e-02       1.647398639255e+03 
       3.725893682380e-02       1.639885169749e+03 
       3.743295587954e-02       1.632373459005e+03 
       3.760821594743e-02       1.624866416937e+03 
       3.778475926748e-02       1.617365881514e+03 
       3.796262999243e-02       1.609865901247e+03 
       3.814187430181e-02       1.602371256714e+03 
       3.832254052440e-02       1.594879378059e+03 
       3.850467927007e-02       1.587394035484e+03 
       3.868834357178e-02       1.579908497040e+03 
       3.887358903872e-02       1.572482545509e+03 
       3.906047402164e-02       1.565005503107e+03 
       3.924905979153e-02       1.557528805882e+03 
       3.943941073291e-02       1.550055358845e+03 
       3.963159455331e-02       1.542584747835e+03 
       3.982568251042e-02       1.535112875300e+03 
       4.002174965883e-02       1.527642387792e+03 
       4.021987511832e-02       1.520172745352e+03 
       4.042014236602e-02       1.512703746391e+03 
       4.062263955501e-02       1.505231208345e+03 
       4.082745986222e-02       1.497760070264e+03 
       4.103470186891e-02       1.490310515842e+03 
       4.124446997739e-02       1.482832297437e+03 
       4.145687486823e-02       1.475352856934e+03 
       4.167203400258e-02       1.467867000556e+03 
       4.189007217511e-02       1.460376443706e+03 
       4.211112212365e-02       1.452880779144e+03 
       4.233532520259e-02       1.445375821318e+03 
       4.256283212808e-02       1.437862485285e+03 
       4.279380380433e-02       1.430341991251e+03 
       4.302841224157e-02       1.422809457085e+03 
       4.326684157802e-02       1.415263847868e+03 
       4.350928922018e-02       1.407751303331e+03 
       4.375596711773e-02       1.400178422110e+03 
       4.400710319259e-02       1.392590771866e+03 
       4.426294294431e-02       1.384983974997e+03 
       4.452375125818e-02       1.377357188046e+03 
       4.478981444709e-02       1.369708111918e+03 
       4.506144256329e-02       1.362036402945e+03 
       4.533897202332e-02       1.354336339921e+03 
       4.562276859717e-02       1.346609593363e+03 
       4.591323082253e-02       1.338848738921e+03 
       4.621079391693e-02       1.331076122510e+03 
       4.651593427515e-02       1.323243933094e+03 
       4.682917465725e-02       1.315370681429e+03 
       4.715109019449e-02       1.307454134520e+03 
       4.748231536800e-02       1.299486405279e+03 
       4.782355214894e-02       1.291467336125e+03 
       4.817557953166e-02       1.283386876373e+03 
       4.853926474442e-02       1.275244514288e+03 
       4.891557648987e-02       1.267064878547e+03 
       4.930560065204e-02       1.258774521771e+03 
       4.971055901467e-02       1.250397004141e+03 
       5.013183167245e-02       1.241925896405e+03 
       5.057098399162e-02       1.233348791257e+03 
       5.102979919856e-02       1.224657005063e+03 
       5.151031795874e-02       1.215833568984e+03 
       5.201488666751e-02       1.206881330098e+03 
       5.254621662646e-02       1.197747587782e+03 
       5.310745683914e-02       1.188426479812e+03 
       5.370228383513e-02       1.178892160254e+03 
       5.433501270734e-02       1.169110915745e+03 
       5.501073435416e-02       1.159070294489e+03 
       5.573548457395e-02       1.148664145171e+03 
       5.651645074603e-02       1.137855860024e+03 
       5.736222047267e-02       1.126562752370e+03 
       5.828307200600e-02       1.114691141884e+03 
       5.929129525272e-02       1.102072594373e+03 
