# Matter power spectrum P(k) at redshift z=0
# for k=1.04277e-05 to 1.4771 h/Mpc,
# number of wavenumbers equal to 614
#    1:k (h/Mpc)              2:P (Mpc/h)^3        
       1.042773370306e-05       4.789166788551e+01 
       2.328477105950e-05       1.041666028803e+02 
       3.618684786546e-05       1.595645464788e+02 
       4.916854916505e-05       2.146379677381e+02 
       6.226502987154e-05       2.697073208706e+02 
       7.551232707547e-05       3.250167414980e+02 
       8.894768230270e-05       3.807775077993e+02 
       1.026098779938e-04       4.371859813306e+02 
       1.165395925094e-04       4.944328682329e+02 
       1.307797779983e-04       5.527088833690e+02 
       1.453760654744e-04       6.122118796083e+02 
       1.603772013878e-04       6.731359042979e+02 
       1.758355198053e-04       7.356988467619e+02 
       1.918074539523e-04       8.001231133878e+02 
       2.083540902270e-04       8.666474491751e+02 
       2.255417667452e-04       9.355377793701e+02 
       2.434427168463e-04       1.007050154749e+03 
       2.621357555733e-04       1.081491325484e+03 
       2.817070036690e-04       1.159183108448e+03 
       3.022506387764e-04       1.240474131204e+03 
       3.238696569331e-04       1.325740242167e+03 
       3.466766186988e-04       1.415390027703e+03 
       3.707943429912e-04       1.509867935318e+03 
       3.963564976575e-04       1.609763188184e+03 
       4.235080190042e-04       1.715949601443e+03 
       4.524052734250e-04       1.827925618385e+03 
       4.832158542215e-04       1.946830720677e+03 
       5.161178881387e-04       2.073726231388e+03 
       5.512987130271e-04       2.208462680946e+03 
       5.889527860710e-04       2.352025706966e+03 
       6.292786984153e-04       2.505099121726e+03 
       6.724752145866e-04       2.667914951340e+03 
       7.187363303024e-04       2.841751452295e+03 
       7.682454521582e-04       3.025883437516e+03 
       8.211689412007e-04       3.221954408899e+03 
       8.776494123298e-04       3.429462988966e+03 
       9.377993140081e-04       3.649291364329e+03 
       1.001695391882e-03       3.880598382734e+03 
       1.069374632060e-03       4.123219891755e+03 
       1.140832166743e-03       4.377538260623e+03 
       1.216021414686e-03       4.642085068570e+03 
       1.294856458423e-03       4.916719206077e+03 
       1.377216386088e-03       5.200593187927e+03 
       1.462951106831e-03       5.492854121450e+03 
       1.477104874446e-03       5.540735681938e+03 
       1.551888026811e-03       5.792277795459e+03 
       1.643838960347e-03       6.097897542009e+03 
       1.738606732030e-03       6.408859841827e+03 
       1.835991066032e-03       6.724198039176e+03 
       1.935793519393e-03       7.042705718263e+03 
       2.037821364555e-03       7.363538207116e+03 
       2.141890443276e-03       7.685880128678e+03 
       2.247827092331e-03       8.008968591954e+03 
       2.355469283649e-03       8.332042111021e+03 
       2.464667135197e-03       8.654458481144e+03 
       2.575282943097e-03       8.975681973524e+03 
       2.687190868338e-03       9.301517694691e+03 
       2.800276389304e-03       9.616425958289e+03 
       2.914435608507e-03       9.998862349547e+03 
       3.029574480860e-03       1.027512911603e+04 
       3.145608012786e-03       1.061533014706e+04 
       3.262459466776e-03       1.088844542426e+04 
       3.380059594512e-03       1.120516918732e+04 
       3.498345913022e-03       1.154209551440e+04 
       3.617262031943e-03       1.181115751070e+04 
       3.736757035507e-03       1.210186776643e+04 
       3.856784919707e-03       1.237773991377e+04 
       3.977304083123e-03       1.266831995910e+04 
       4.098276868573e-03       1.294395365088e+04 
       4.219669152064e-03       1.321565081649e+04 
       4.341449975183e-03       1.348299238255e+04 
       4.463591216972e-03       1.374605820246e+04 
       4.586067301450e-03       1.400061174583e+04 
       4.708854937127e-03       1.425972367287e+04 
       4.831932885097e-03       1.450951821427e+04 
       4.955281752602e-03       1.474739693244e+04 
       5.078883809234e-03       1.499625723488e+04 
       5.202722823223e-03       1.522397764532e+04 
       5.326783915527e-03       1.545477997889e+04 
       5.451053429695e-03       1.567184072311e+04 
       5.575518815705e-03       1.590492415056e+04 
       5.700168526162e-03       1.611277136103e+04 
       5.824991923458e-03       1.631366493062e+04 
       5.949979196640e-03       1.652296162493e+04 
       6.075121286889e-03       1.671516519722e+04 
       6.200409820637e-03       1.692672467061e+04 
       6.325837049470e-03       1.711058899427e+04 
       6.451395796061e-03       1.730108843230e+04 
       6.577079405466e-03       1.747542289531e+04 
       6.702881701206e-03       1.764530115724e+04 
       6.828796945606e-03       1.783487026194e+04 
       6.954819803937e-03       1.799716960580e+04 
       7.080945311963e-03       1.816583378458e+04 
       7.207168846525e-03       1.831849713069e+04 
       7.333486098853e-03       1.846731660690e+04 
       7.459893050324e-03       1.863553853116e+04 
       7.586385950408e-03       1.877569254571e+04 
       7.712961296596e-03       1.891304787870e+04 
       7.839615816097e-03       1.905708195335e+04 
       7.966346449137e-03       1.918499627448e+04 
       8.093150333707e-03       1.930894325922e+04 
       8.220024791610e-03       1.945313858329e+04 
       8.346967315690e-03       1.957078232436e+04 
       8.473975558130e-03       1.968329940854e+04 
       8.601047319716e-03       1.980517961379e+04 
       8.728180539984e-03       1.991082738136e+04 
       8.855373288160e-03       2.001246516838e+04 
       8.982623754832e-03       2.011057718185e+04 
       9.109930244279e-03       2.022915997756e+04 
       9.237291167404e-03       2.032127919609e+04 
       9.364705035219e-03       2.040931110399e+04 
       9.492170452830e-03       2.050564085430e+04 
       9.619686113882e-03       2.058766334305e+04 
       9.747250795426e-03       2.066588576279e+04 
       9.874863353172e-03       2.074055205000e+04 
       1.000252271709e-02       2.083536056717e+04 
       1.013022788735e-02       2.090499801221e+04 
       1.025797793053e-02       2.097134714724e+04 
       1.038577197615e-02       2.103436687918e+04 
       1.051360921339e-02       2.110549462234e+04 
       1.064148888812e-02       2.116242938677e+04 
       1.076941030007e-02       2.121705368771e+04 
       1.089737280025e-02       2.126793617686e+04 
       1.102537578854e-02       2.133843683487e+04 
       1.115341871142e-02       2.138505821581e+04 
       1.128150105994e-02       2.142895972919e+04 
       1.140962236771e-02       2.147014345082e+04 
       1.153778220915e-02       2.150855665740e+04 
       1.166598019778e-02       2.155439067503e+04 
       1.179421598467e-02       2.158785193392e+04 
       1.192248925700e-02       2.161902311614e+04 
       1.205079973669e-02       2.164770047835e+04 
       1.217914717914e-02       2.169418826924e+04 
       1.230753137210e-02       2.171870132447e+04 
       1.243595213454e-02       2.174080978848e+04 
       1.256440931565e-02       2.176094452458e+04 
       1.269290279393e-02       2.177822867811e+04 
       1.282143247631e-02       2.180357562631e+04 
       1.294999829733e-02       2.181724049573e+04 
       1.307860021842e-02       2.182916697958e+04 
       1.320723822719e-02       2.183877504936e+04 
       1.333591233680e-02       2.184536713841e+04 
       1.346462258540e-02       2.187023067678e+04 
       1.359336903556e-02       2.187440951387e+04 
       1.372215177378e-02       2.187628794150e+04 
       1.385097091005e-02       2.187669140584e+04 
       1.397982657745e-02       2.187525569427e+04 
       1.410871893173e-02       2.188068770209e+04 
       1.423764815102e-02       2.187606128945e+04 
       1.436661443552e-02       2.187004632623e+04 
       1.449561800719e-02       2.186136218163e+04 
       1.462465910955e-02       2.185187188159e+04 
       1.475373800745e-02       2.184042740212e+04 
       1.477104874446e-02       2.183886391797e+04 
       1.488285498689e-02       2.184439662523e+04 
       1.501201035488e-02       2.183085896175e+04 
       1.514120443929e-02       2.181559130305e+04 
       1.527043758875e-02       2.179840865996e+04 
       1.539971017257e-02       2.178017146498e+04 
       1.552902258069e-02       2.175998289951e+04 
       1.565837522366e-02       2.174755697070e+04 
       1.578776853258e-02       2.172543313091e+04 
       1.591720295916e-02       2.170174819268e+04 
       1.604667897571e-02       2.167672073346e+04 
       1.617619707522e-02       2.165038080081e+04 
       1.630575777141e-02       2.162352729831e+04 
       1.643536159882e-02       2.160994787716e+04 
       1.656500911292e-02       2.158081810506e+04 
       1.669470089024e-02       2.155019496318e+04 
       1.682443752848e-02       2.151912998484e+04 
       1.695421964672e-02       2.148662825802e+04 
       1.708404788556e-02       2.145276409103e+04 
       1.721392290732e-02       2.141846754571e+04 
       1.734384539628e-02       2.138968786755e+04 
       1.747381605886e-02       2.135336517515e+04 
       1.760383562392e-02       2.131571000243e+04 
       1.773390484295e-02       2.127776144571e+04 
       1.786402449043e-02       2.123795543888e+04 
       1.799419536407e-02       2.119823298867e+04 
       1.812441828514e-02       2.115688595960e+04 
       1.825469409880e-02       2.112838872928e+04 
       1.838502367444e-02       2.108579900333e+04 
       1.851540790602e-02       2.104293256337e+04 
       1.864584771251e-02       2.099867391065e+04 
       1.877634403822e-02       2.095385459177e+04 
       1.890689785324e-02       2.090811159841e+04 
       1.903751015388e-02       2.086202422687e+04 
       1.916818196311e-02       2.081484858381e+04 
       1.929891433099e-02       2.077372259623e+04 
       1.942970833524e-02       2.072523570781e+04 
       1.956056508163e-02       2.067674647530e+04 
       1.969148570459e-02       2.062688717277e+04 
       1.982247136771e-02       2.057716462573e+04 
       1.995352326429e-02       2.052605267422e+04 
       2.008464261796e-02       2.047523959121e+04 
       2.021583068321e-02       2.043448147968e+04 
       2.034708874609e-02       2.038219756377e+04 
       2.047841812476e-02       2.032949555769e+04 
       2.060982017025e-02       2.027601320612e+04 
       2.074129626703e-02       2.022236839874e+04 
       2.087284783382e-02       2.016793204521e+04 
       2.100447632424e-02       2.011318125681e+04 
       2.113618322762e-02       2.005759184249e+04 
       2.126797006971e-02       2.000187104825e+04 
       2.139983841354e-02       1.995066655430e+04 
       2.153178986022e-02       1.989440151690e+04 
       2.166382604977e-02       1.983734256731e+04 
       2.179594866203e-02       1.977980012237e+04 
       2.192815941758e-02       1.972190287127e+04 
       2.206046007859e-02       1.966353094426e+04 
       2.219285244991e-02       1.960477617150e+04 
       2.232533837993e-02       1.954597481428e+04 
       2.245791976170e-02       1.949600543262e+04 
       2.259059853397e-02       1.943660646202e+04 
       2.272337668222e-02       1.937651467826e+04 
       2.285625623986e-02       1.931656009788e+04 
       2.298923928935e-02       1.925580334043e+04 
       2.312232796339e-02       1.919522159089e+04 
       2.325552444617e-02       1.913387406762e+04 
       2.338883097463e-02       1.907225908313e+04 
       2.352224983979e-02       1.901067788532e+04 
       2.365578338807e-02       1.894848129258e+04 
       2.378943402271e-02       1.889047395305e+04 
       2.392320420521e-02       1.882828168800e+04 
       2.405709645681e-02       1.876538590872e+04 
       2.419111336002e-02       1.870269473408e+04 
       2.432525756021e-02       1.863926204553e+04 
       2.445953176725e-02       1.857568631530e+04 
       2.459393875719e-02       1.851231327155e+04 
       2.472848137399e-02       1.844840677634e+04 
       2.486316253135e-02       1.838436167511e+04 
       2.499798521456e-02       1.832792834446e+04 
       2.513295248238e-02       1.826344525372e+04 
       2.526806746909e-02       1.819920189819e+04 
       2.540333338650e-02       1.813443443190e+04 
       2.553875352608e-02       1.806957474145e+04 
       2.567433126113e-02       1.800470703938e+04 
       2.581007004909e-02       1.793956058952e+04 
       2.594597343385e-02       1.787423171311e+04 
       2.608204504817e-02       1.780912740949e+04 
       2.621828861622e-02       1.774345151917e+04 
       2.635470795613e-02       1.768135024891e+04 
       2.649130698273e-02       1.761571930327e+04 
       2.662808971026e-02       1.754982061815e+04 
       2.676506025531e-02       1.748411171593e+04 
       2.690222283978e-02       1.741798789915e+04 
       2.703958179396e-02       1.735179968140e+04 
       2.717714155972e-02       1.728571705283e+04 
       2.731490669388e-02       1.721950444578e+04 
       2.745288187158e-02       1.715299281702e+04 
       2.759107188989e-02       1.708673473247e+04 
       2.772948167147e-02       1.702024717379e+04 
       2.786811626846e-02       1.696009001031e+04 
       2.800698086640e-02       1.689371921224e+04 
       2.814608078842e-02       1.682708162422e+04 
       2.828542149946e-02       1.676043442818e+04 
       2.842500861080e-02       1.669389278592e+04 
       2.856484788464e-02       1.662729439448e+04 
       2.870494523892e-02       1.656051086097e+04 
       2.884530675233e-02       1.649398173960e+04 
       2.898593866947e-02       1.642718119617e+04 
       2.912684740634e-02       1.636038722778e+04 
       2.926803955586e-02       1.629365052684e+04 
       2.940952189380e-02       1.622957309001e+04 
       2.955130138484e-02       1.616285644824e+04 
       2.969338518893e-02       1.609611073332e+04 
       2.983578066791e-02       1.602955367863e+04 
       2.997849539234e-02       1.596274694794e+04 
       3.012153714879e-02       1.589620007781e+04 
       3.026491394722e-02       1.582958467546e+04 
       3.040863402887e-02       1.576284256909e+04 
       3.055270587436e-02       1.569632664475e+04 
       3.069713821225e-02       1.562986253935e+04 
       3.084194002789e-02       1.556322999651e+04 
       3.098712057273e-02       1.550154473654e+04 
       3.113268937402e-02       1.543510473985e+04 
       3.127865624493e-02       1.536877628649e+04 
       3.142503129521e-02       1.530241022572e+04 
       3.157182494227e-02       1.523630610694e+04 
       3.171904792282e-02       1.517009046846e+04 
       3.186671130501e-02       1.510389637049e+04 
       3.201482650123e-02       1.503795232478e+04 
       3.216340528146e-02       1.497193075097e+04 
       3.231245978728e-02       1.490596551301e+04 
       3.246200254661e-02       1.484024648813e+04 
       3.261204648912e-02       1.477436667286e+04 
       3.276260496244e-02       1.471074896718e+04 
       3.291369174922e-02       1.464507366505e+04 
       3.306532108501e-02       1.457965976698e+04 
       3.321750767708e-02       1.451414298947e+04 
       3.337026672424e-02       1.444878330443e+04 
       3.352361393770e-02       1.438358157318e+04 
       3.367756556301e-02       1.431829959529e+04 
       3.383213840322e-02       1.425315872953e+04 
       3.398734984326e-02       1.418826246205e+04 
       3.414321787571e-02       1.412323557377e+04 
       3.429976112795e-02       1.405838326886e+04 
       3.445699889090e-02       1.399353118873e+04 
       3.461495114930e-02       1.393273739908e+04 
       3.477363861383e-02       1.386817897642e+04 
       3.493308275500e-02       1.380374715365e+04 
       3.509330583916e-02       1.373949348894e+04 
       3.525433096647e-02       1.367520658340e+04 
       3.541618211137e-02       1.361103587955e+04 
       3.557888416532e-02       1.354709189371e+04 
       3.574246298227e-02       1.348309560501e+04 
       3.590694542699e-02       1.341924598325e+04 
       3.607235942638e-02       1.335558718165e+04 
       3.623873402408e-02       1.329185756769e+04 
       3.640609943866e-02       1.322829320516e+04 
       3.657448712556e-02       1.316646055496e+04 
       3.674392984318e-02       1.310319262360e+04 
       3.691446172341e-02       1.303989452863e+04 
       3.708611834694e-02       1.297668798588e+04 
       3.725893682380e-02       1.291370094569e+04 
       3.743295587954e-02       1.285068287567e+04 
       3.760821594743e-02       1.278776979648e+04 
       3.778475926748e-02       1.272505473029e+04 
       3.796262999243e-02       1.266226092836e+04 
       3.814187430181e-02       1.259961714860e+04 
       3.832254052440e-02       1.253701034440e+04 
       3.850467927007e-02       1.247462456714e+04 
       3.868834357178e-02       1.241215145831e+04 
       3.887358903872e-02       1.235264531421e+04 
       3.906047402164e-02       1.229044447180e+04 
       3.924905979153e-02       1.222821791839e+04 
       3.943941073291e-02       1.216610884284e+04 
       3.963159455331e-02       1.210411181369e+04 
       3.982568251042e-02       1.204205891488e+04 
       4.002174965883e-02       1.198008276023e+04 
       4.021987511832e-02       1.191817760125e+04 
       4.042014236602e-02       1.185635412789e+04 
       4.062263955501e-02       1.179444278174e+04 
       4.082745986222e-02       1.173268949645e+04 
       4.103470186891e-02       1.167213947696e+04 
       4.124446997739e-02       1.161033031992e+04 
       4.145687486823e-02       1.154863467081e+04 
       4.167203400258e-02       1.148685191604e+04 
       4.189007217511e-02       1.142508810722e+04 
       4.211112212365e-02       1.136335937693e+04 
       4.233532520259e-02       1.130151489870e+04 
       4.256283212808e-02       1.123963308647e+04 
       4.279380380433e-02       1.117780800938e+04 
       4.302841224157e-02       1.111586645701e+04 
       4.326684157802e-02       1.105381038194e+04 
       4.350928922018e-02       1.099389135421e+04 
       4.375596711773e-02       1.093170931786e+04 
       4.400710319259e-02       1.086949474186e+04 
       4.426294294431e-02       1.080711924188e+04 
       4.452375125818e-02       1.074461029048e+04 
       4.478981444709e-02       1.068193646523e+04 
       4.506144256329e-02       1.061915770311e+04 
       4.533897202332e-02       1.055610726615e+04 
       4.562276859717e-02       1.049294320314e+04 
       4.591323082253e-02       1.042943933953e+04 
       4.621079391693e-02       1.036672978983e+04 
       4.651593427515e-02       1.030272845397e+04 
       4.682917465725e-02       1.023842033273e+04 
       4.715109019449e-02       1.017384058131e+04 
       4.748231536800e-02       1.010879760184e+04 
       4.782355214894e-02       1.004344187641e+04 
       4.817557953166e-02       9.977521873657e+03 
       4.853926474442e-02       9.911206720319e+03 
       4.891557648987e-02       9.845852144947e+03 
       4.930560065204e-02       9.778390062560e+03 
       4.971055901467e-02       9.710192120678e+03 
       5.013183167245e-02       9.641287835391e+03 
       5.057098399162e-02       9.571508346025e+03 
       5.102979919856e-02       9.500883753559e+03 
       5.151031795874e-02       9.429167963660e+03 
       5.201488666751e-02       9.357049256982e+03 
       5.254621662646e-02       9.282892325476e+03 
       5.310745683914e-02       9.207243435646e+03 
       5.370228383513e-02       9.129930005994e+03 
       5.433501270734e-02       9.050656231110e+03 
       5.501073435416e-02       8.970301112120e+03 
       5.573548457395e-02       8.886087640304e+03 
       5.651645074603e-02       8.798693123777e+03 
       5.736222047267e-02       8.707463652582e+03 
       5.828307200600e-02       8.612132107437e+03 
       5.929129525272e-02       8.510488257083e+03 
