# Matter power spectrum P(k) at redshift z=0
# for k=1.04134e-05 to 1.4771 h/Mpc,
# number of wavenumbers equal to 614
#    1:k (h/Mpc)              2:P (Mpc/h)^3        
       1.041341639285e-05       4.844835183685e+01 
       2.327042171641e-05       1.054539627697e+02 
       3.617242813832e-05       1.615689257701e+02 
       4.915402023115e-05       2.173521498210e+02 
       6.225035209231e-05       2.731276062680e+02 
       7.549745964336e-05       3.291416673406e+02 
       8.893258287439e-05       3.856072930669e+02 
       1.025945023052e-04       4.427221899007e+02 
       1.165238939670e-04       5.006993696289e+02 
       1.307637072433e-04       5.596907193248e+02 
       1.453595699131e-04       6.199102677225e+02 
       1.603602246847e-04       6.815603394648e+02 
       1.758180013342e-04       7.448555961927e+02 
       1.917893282013e-04       8.100146450465e+02 
       2.083352861545e-04       8.772792279560e+02 
       2.255222070858e-04       9.469028182511e+02 
       2.434223173661e-04       1.019171619604e+03 
       2.621144242800e-04       1.094361444355e+03 
       2.816846399840e-04       1.172798797818e+03 
       3.022271326848e-04       1.254824774117e+03 
       3.238448881340e-04       1.340812330621e+03 
       3.466504557910e-04       1.431180905535e+03 
       3.707666427421e-04       1.526326099308e+03 
       3.963271044220e-04       1.626857140488e+03 
       4.234767643783e-04       1.733044708631e+03 
       4.523719762441e-04       1.845756593565e+03 
       4.831803210321e-04       1.965580170227e+03 
       5.160799142935e-04       2.092645754050e+03 
       5.512580845623e-04       2.227180555244e+03 
       5.889092825176e-04       2.370960154213e+03 
       6.292320966663e-04       2.523912178977e+03 
       6.724252938746e-04       2.686465672501e+03 
       7.186828782417e-04       2.859455680703e+03 
       7.681882716622e-04       3.042887610420e+03 
       8.211078579216e-04       3.236926011338e+03 
       8.775842821015e-04       3.442296467080e+03 
       9.377300296499e-04       3.658767061508e+03 
       1.001621888673e-03       3.886035691229e+03 
       1.069296891262e-03       4.124042533735e+03 
       1.140750216732e-03       4.372324066238e+03 
       1.215935329537e-03       4.629980870119e+03 
       1.294766354091e-03       4.896286956752e+03 
       1.377122414638e-03       5.170305241741e+03 
       1.462853449349e-03       5.451080036049e+03 
       1.477104874446e-03       5.497332416568e+03 
       1.551786885706e-03       5.737545226571e+03 
       1.643734551712e-03       6.028300659441e+03 
       1.738499278605e-03       6.322827355228e+03 
       1.835880791120e-03       6.619516745064e+03 
       1.935680641929e-03       6.917428533160e+03 
       2.037706095352e-03       7.215666958546e+03 
       2.141772982368e-03       7.513136880585e+03 
       2.247707627289e-03       7.808979149378e+03 
       2.355347988681e-03       8.102493690267e+03 
       2.464544170867e-03       8.392911720785e+03 
       2.575158456501e-03       8.679576977700e+03 
       2.687064993601e-03       8.979776149676e+03 
       2.800149248285e-03       9.242058177478e+03 
       2.914307311625e-03       9.783074993859e+03 
       3.029445127977e-03       9.885084842200e+03 
       3.145477694107e-03       1.025506967979e+04 
       3.262328263719e-03       1.036057554483e+04 
       3.379927580545e-03       1.067418618634e+04 
       3.498213154441e-03       1.110927269614e+04 
       3.617128588596e-03       1.120936276375e+04 
       3.736622961449e-03       1.144794502852e+04 
       3.856650263801e-03       1.160580316969e+04 
       3.977168889580e-03       1.188144028763e+04 
       4.098141177433e-03       1.208375818969e+04 
       4.219532999635e-03       1.227333820155e+04 
       4.341313394425e-03       1.247874111169e+04 
       4.463454237843e-03       1.266852219126e+04 
       4.585929951218e-03       1.283947934250e+04 
       4.708717240641e-03       1.303719507877e+04 
       4.831794865030e-03       1.321324502658e+04 
       4.955143429673e-03       1.334895155669e+04 
       5.078745202400e-03       1.355315147022e+04 
       5.202583949847e-03       1.367112491810e+04 
       5.326644791538e-03       1.382045724763e+04 
       5.450914069723e-03       1.391799991252e+04 
       5.575379233204e-03       1.411426396975e+04 
       5.700028733518e-03       1.419965366471e+04 
       5.824851932088e-03       1.426646331616e+04 
       5.949839017081e-03       1.439394896120e+04 
       6.074980928875e-03       1.445140590580e+04 
       6.200269293172e-03       1.462676348369e+04 
       6.325696360890e-03       1.467493279739e+04 
       6.451254954091e-03       1.477500396037e+04 
       6.576938417273e-03       1.480850150855e+04 
       6.702740573446e-03       1.483494399864e+04 
       6.828655684464e-03       1.498365569517e+04 
       6.954678415165e-03       1.500576470477e+04 
       7.080803800918e-03       1.507822242125e+04 
       7.207027218197e-03       1.508322827801e+04 
       7.333344357894e-03       1.508475093972e+04 
       7.459751201076e-03       1.520566984331e+04 
       7.586243996923e-03       1.519480882103e+04 
       7.712819242660e-03       1.518622979420e+04 
       7.839473665248e-03       1.522849710824e+04 
       7.966204204685e-03       1.520227346825e+04 
       8.093007998748e-03       1.517191769217e+04 
       8.219882369041e-03       1.526241247720e+04 
       8.346824808225e-03       1.522985862475e+04 
       8.473832968310e-03       1.518616356647e+04 
       8.600904649922e-03       1.520559120781e+04 
       8.728037792447e-03       1.515647917660e+04 
       8.855230464970e-03       1.510183054356e+04 
       8.982480857949e-03       1.504338755544e+04 
       9.109787275538e-03       1.510359514956e+04 
       9.237148128526e-03       1.504332160877e+04 
       9.364561927815e-03       1.497566233637e+04 
       9.492027278411e-03       1.496353649769e+04 
       9.619542873861e-03       1.489322932411e+04 
       9.747107491128e-03       1.481737857038e+04 
       9.874719985833e-03       1.473716901984e+04 
       1.000237928787e-02       1.476892692628e+04 
       1.013008439732e-02       1.468908072350e+04 
       1.025783438071e-02       1.460548363630e+04 
       1.038562836747e-02       1.451800976577e+04 
       1.051346554673e-02       1.448208247190e+04 
       1.064134516430e-02       1.438927558050e+04 
       1.076926651983e-02       1.429676598690e+04 
       1.089722896430e-02       1.419820303348e+04 
       1.102523189752e-02       1.420422155100e+04 
       1.115327476593e-02       1.410758605899e+04 
       1.128135706051e-02       1.400926764584e+04 
       1.140947831485e-02       1.390895031763e+04 
       1.153763810331e-02       1.380648550921e+04 
       1.166583603937e-02       1.374852583802e+04 
       1.179407177406e-02       1.364398453615e+04 
       1.192234499452e-02       1.353851191475e+04 
       1.205065542263e-02       1.343173475170e+04 
       1.217900281377e-02       1.341589746199e+04 
       1.230738695563e-02       1.330907216273e+04 
       1.243580766714e-02       1.320099353132e+04 
       1.256426479749e-02       1.309292423245e+04 
       1.269275822512e-02       1.298183880762e+04 
       1.282128785695e-02       1.291547121788e+04 
       1.294985362747e-02       1.280625065454e+04 
       1.307845549808e-02       1.269728061881e+04 
       1.320709345638e-02       1.258718511924e+04 
       1.333576751549e-02       1.247217814072e+04 
       1.346447771353e-02       1.244462370126e+04 
       1.359322411304e-02       1.233495355331e+04 
       1.372200680050e-02       1.222426180597e+04 
       1.385082588588e-02       1.211453670980e+04 
       1.397968150222e-02       1.200432661397e+04 
       1.410857380526e-02       1.193118278017e+04 
       1.423750297311e-02       1.182267577917e+04 
       1.436646920591e-02       1.171525974856e+04 
       1.449547272563e-02       1.160412918729e+04 
       1.462451377575e-02       1.149703402408e+04 
       1.475359262110e-02       1.138851464833e+04 
       1.477104874446e-02       1.137433003310e+04 
       1.488270954767e-02       1.134955345227e+04 
       1.501186486242e-02       1.124538164679e+04 
       1.514105889322e-02       1.114085823114e+04 
       1.527029198865e-02       1.103504705355e+04 
       1.539956451803e-02       1.093112585232e+04 
       1.552887687126e-02       1.082550222915e+04 
       1.565822945886e-02       1.075622875769e+04 
       1.578762271193e-02       1.065485174909e+04 
       1.591705708212e-02       1.055303974877e+04 
       1.604653304176e-02       1.045239270540e+04 
       1.617605108379e-02       1.035166402004e+04 
       1.630561172191e-02       1.025458303705e+04 
       1.643521549064e-02       1.021346239128e+04 
       1.656486294542e-02       1.011763872972e+04 
       1.669455466276e-02       1.002126802331e+04 
       1.682429124034e-02       9.928329436123e+03 
       1.695407329722e-02       9.835057704742e+03 
       1.708390147396e-02       9.741073434829e+03 
       1.721377643288e-02       9.650764310781e+03 
       1.734369885821e-02       9.585192086447e+03 
       1.747366945636e-02       9.496243356456e+03 
       1.760368895615e-02       9.406615321609e+03 
       1.773375810907e-02       9.320359751582e+03 
       1.786387768955e-02       9.231970185169e+03 
       1.799404849529e-02       9.147719517110e+03 
       1.812427134752e-02       9.062206068908e+03 
       1.825454709138e-02       9.026091858275e+03 
       1.838487659622e-02       8.943331742224e+03 
       1.851526075600e-02       8.863559459448e+03 
       1.864570048964e-02       8.782682952012e+03 
       1.877619674142e-02       8.704592234145e+03 
       1.890675048142e-02       8.625633454573e+03 
       1.903736270590e-02       8.548971729015e+03 
       1.916803443781e-02       8.471883118365e+03 
       1.929876672719e-02       8.419015168251e+03 
       1.942956065169e-02       8.343973272051e+03 
       1.956041731709e-02       8.272188415190e+03 
       1.969133785777e-02       8.198627204825e+03 
       1.982232343729e-02       8.128641444086e+03 
       1.995337524892e-02       8.057147861785e+03 
       2.008449451625e-02       7.988846921191e+03 
       2.021568249373e-02       7.957460087283e+03 
       2.034694046738e-02       7.890223440839e+03 
       2.047826975534e-02       7.824343112409e+03 
       2.060967170856e-02       7.758489655031e+03 
       2.074114771152e-02       7.694787514376e+03 
       2.087269918287e-02       7.630818200920e+03 
       2.100432757621e-02       7.568337841979e+03 
       2.113603438081e-02       7.506059923949e+03 
       2.126782112240e-02       7.445105765054e+03 
       2.139968936395e-02       7.401603973962e+03 
       2.153164070652e-02       7.342735622029e+03 
       2.166367679012e-02       7.284061864902e+03 
       2.179579929452e-02       7.226023804372e+03 
       2.192800994025e-02       7.169599255229e+03 
       2.206031048946e-02       7.113109091210e+03 
       2.219270274691e-02       7.057210769183e+03 
       2.232518856097e-02       7.003040257418e+03 
       2.245776982464e-02       6.978266160850e+03 
       2.259044847660e-02       6.925850903015e+03 
       2.272322650230e-02       6.873010368200e+03 
       2.285610593508e-02       6.822209966308e+03 
       2.298908885734e-02       6.770689550769e+03 
       2.312217740173e-02       6.721251704118e+03 
       2.325537375239e-02       6.671024975622e+03 
       2.338868014620e-02       6.621727605362e+03 
       2.352209887410e-02       6.573980218402e+03 
       2.365563228246e-02       6.525923772459e+03 
       2.378928277446e-02       6.491516843854e+03 
       2.392305281152e-02       6.445674014461e+03 
       2.405694491482e-02       6.399235856038e+03 
       2.419096166680e-02       6.354632896292e+03 
       2.432510571276e-02       6.309268745301e+03 
       2.445937976250e-02       6.264458577080e+03 
       2.459378659199e-02       6.221413086417e+03 
       2.472832904511e-02       6.177556156176e+03 
       2.486301003549e-02       6.135191409499e+03 
       2.499783254832e-02       6.115730057340e+03 
       2.513279964230e-02       6.073756995692e+03 
       2.526791445162e-02       6.033260632915e+03 
       2.540318018799e-02       5.992156738648e+03 
       2.553860014279e-02       5.951685032736e+03 
       2.567417768923e-02       5.912175636188e+03 
       2.580991628467e-02       5.872857444076e+03 
       2.594581947288e-02       5.833568146839e+03 
       2.608189088653e-02       5.795462545552e+03 
       2.621813424969e-02       5.756652869205e+03 
       2.635455338037e-02       5.729039481904e+03 
       2.649115219330e-02       5.691940254029e+03 
       2.662793470260e-02       5.654654871752e+03 
       2.676490502475e-02       5.618642221488e+03 
       2.690206738153e-02       5.581905918860e+03 
       2.703942610310e-02       5.545678882639e+03 
       2.717698563122e-02       5.510299487024e+03 
       2.731475052256e-02       5.475051554170e+03 
       2.745272545213e-02       5.439522197161e+03 
       2.759091521686e-02       5.405225787385e+03 
       2.772932473929e-02       5.370666544037e+03 
       2.786795907138e-02       5.354058380571e+03 
       2.800682339854e-02       5.320754046068e+03 
       2.814592304372e-02       5.287239590625e+03 
       2.828526347173e-02       5.253944104322e+03 
       2.842485029367e-02       5.221318584594e+03 
       2.856468927156e-02       5.188843815300e+03 
       2.870478632317e-02       5.156193527044e+03 
       2.884514752700e-02       5.124611680313e+03 
       2.898577912748e-02       5.092414111084e+03 
       2.912668754039e-02       5.060653009859e+03 
       2.926787935847e-02       5.029764638864e+03 
       2.940936135727e-02       5.005911905000e+03 
       2.955114050126e-02       4.975043474117e+03 
       2.969322395016e-02       4.944296955324e+03 
       2.983561906558e-02       4.914256931912e+03 
       2.997833341786e-02       4.883695883699e+03 
       3.012137479331e-02       4.854135697238e+03 
       3.026475120163e-02       4.824459264274e+03 
       3.040847088380e-02       4.794515351298e+03 
       3.055254232018e-02       4.765256093843e+03 
       3.069697423904e-02       4.736183145674e+03 
       3.084177562543e-02       4.706837840915e+03 
       3.098695573051e-02       4.691632465761e+03 
       3.113252408119e-02       4.662960272120e+03 
       3.127849049034e-02       4.634623248497e+03 
       3.142486506737e-02       4.606230860194e+03 
       3.157165822933e-02       4.578640975006e+03 
       3.171888071256e-02       4.550529690916e+03 
       3.186654358484e-02       4.522642229573e+03 
       3.201465825817e-02       4.495442572644e+03 
       3.216323650212e-02       4.468029290299e+03 
       3.231229045785e-02       4.440737365534e+03 
       3.246183265283e-02       4.414084912617e+03 
       3.261187601626e-02       4.386926111860e+03 
       3.276243389532e-02       4.365971891948e+03 
       3.291352007215e-02       4.339289134116e+03 
       3.306514878178e-02       4.313228119679e+03 
       3.321733473094e-02       4.286827425887e+03 
       3.337009311790e-02       4.260782680748e+03 
       3.352343965325e-02       4.234929203300e+03 
       3.367739058195e-02       4.208890223352e+03 
       3.383196270640e-02       4.183151501661e+03 
       3.398717341088e-02       4.157983083369e+03 
       3.414304068726e-02       4.132353366275e+03 
       3.429958316221e-02       4.107110345745e+03 
       3.445682012587e-02       4.081786823705e+03 
       3.461477156221e-02       4.067059658081e+03 
       3.477345818105e-02       4.042205201699e+03 
       3.493290145205e-02       4.017546580073e+03 
       3.509312364064e-02       3.993233886399e+03 
       3.525414784604e-02       3.968703574036e+03 
       3.541599804166e-02       3.944350278341e+03 
       3.557869911793e-02       3.920489494424e+03 
       3.574227692769e-02       3.896326563846e+03 
       3.590675833456e-02       3.872415488126e+03 
       3.607217126419e-02       3.848833068641e+03 
       3.623854475898e-02       3.824966303440e+03 
       3.640590903612e-02       3.801395374291e+03 
       3.657429554965e-02       3.782291496135e+03 
       3.674373705646e-02       3.759249292454e+03 
       3.691426768686e-02       3.735927976323e+03 
       3.708592301988e-02       3.712739174110e+03 
       3.725874016380e-02       3.689849676749e+03 
       3.743275784229e-02       3.666888880719e+03 
       3.760801648669e-02       3.644074967871e+03 
       3.778455833488e-02       3.621653206673e+03 
       3.796242753744e-02       3.598943803532e+03 
       3.814167027156e-02       3.576529184425e+03 
       3.832233486352e-02       3.553961653015e+03 
       3.850447192057e-02       3.531939373165e+03 
       3.868813447288e-02       3.509570041105e+03 
       3.887337812668e-02       3.495037109885e+03 
       3.906026122954e-02       3.473192926519e+03 
       3.924884504907e-02       3.451202936715e+03 
       3.943919396620e-02       3.429429295213e+03 
       3.963137568462e-02       3.407868025494e+03 
       3.982546145792e-02       3.386108137900e+03 
       4.002152633629e-02       3.364491170967e+03 
       4.021964943480e-02       3.343008262723e+03 
       4.041991422553e-02       3.321671803841e+03 
       4.062240885615e-02       3.300127901385e+03 
       4.082722649777e-02       3.278934744883e+03 
       4.103446572536e-02       3.260776563765e+03 
       4.124423093448e-02       3.239505449589e+03 
       4.145663279841e-02       3.218575470580e+03 
       4.167178877040e-02       3.197436113824e+03 
       4.188982363661e-02       3.176430007863e+03 
       4.211087012560e-02       3.155617585662e+03 
       4.233506958172e-02       3.134619848981e+03 
       4.256257271023e-02       3.113600728006e+03 
       4.279354040343e-02       3.092868288011e+03 
       4.302814465857e-02       3.072013939927e+03 
       4.326656959972e-02       3.051045064885e+03 
       4.350901261782e-02       3.035906307851e+03 
       4.375568564555e-02       3.015070372400e+03 
       4.400681658609e-02       2.994421195949e+03 
       4.426265091835e-02       2.973666315596e+03 
       4.452345350488e-02       2.952908605729e+03 
       4.478951063334e-02       2.932099804852e+03 
       4.506113232804e-02       2.911448429224e+03 
       4.533865497444e-02       2.890546544650e+03 
       4.562244430789e-02       2.869830791790e+03 
       4.591289882736e-02       2.848739182921e+03 
       4.621045370695e-02       2.830325919428e+03 
       4.651558529265e-02       2.809486049039e+03 
       4.682881628950e-02       2.788202514646e+03 
       4.715072176650e-02       2.767214210090e+03 
       4.748193613410e-02       2.745910338435e+03 
       4.782316128298e-02       2.724753445712e+03 
       4.817517611543e-02       2.703212398115e+03 
       4.853884775411e-02       2.681795456199e+03 
       4.891514477994e-02       2.664137262211e+03 
       4.930515293612e-02       2.642433645529e+03 
       4.971009384271e-02       2.620389398993e+03 
       5.013134740329e-02       2.598229832748e+03 
       5.057047875996e-02       2.575719531960e+03 
       5.102927087491e-02       2.553137163479e+03 
       5.150976410065e-02       2.530110697619e+03 
       5.201430446000e-02       2.508590192017e+03 
       5.254560280885e-02       2.484913508129e+03 
       5.310680761483e-02       2.460793447885e+03 
       5.370159476026e-02       2.436266552187e+03 
       5.433427855303e-02       2.411164813673e+03 
       5.500994893646e-02       2.388311969276e+03 
       5.573464054486e-02       2.361821823083e+03 
       5.651553933959e-02       2.334415636130e+03 
       5.736123120304e-02       2.305892891666e+03 
       5.828199232210e-02       2.277392674604e+03 
       5.929011017201e-02       2.245948684094e+03 
