# dimensionless total lensed [l(l+1)/2pi] C_l's
# for l=2 to 2600, i.e. number of multipoles equal to 2599
#
# -> if you prefer output in CAMB/HealPix/LensPix units/order, set 'format' to 'camb' in input file
# -> if you don't want to see such a header, set 'headers' to 'no' in input file
# -> for CMB lensing (phi), these are C_l^phi-phi for the lensing potential.
#    Remember the conversion factors:
#    C_l^dd (deflection) = l(l+1) C_l^phi-phi
#    C_l^gg (shear/convergence) = 1/4 (l(l+1))^2 C_l^phi-phi
#
# 1:l     2:TT                     3:EE                     4:TE                     5:BB                     6:phiphi                 7:TPhi                   8:Ephi               
    2       1.384960766025e-10       4.495136850318e-15       3.645693451908e-13       2.258039601921e-19       8.194121150564e-09       4.545343080944e-10      -1.913271170063e-12 
    3       1.310134801133e-10       5.998566975447e-15       4.160959523492e-13       4.516529964809e-19       5.027666336996e-09       3.229957654817e-10      -1.485096052684e-12 
    4       1.238980475238e-10       5.418006514819e-15       3.946420536592e-13       7.528564222390e-19       3.495922650245e-09       2.449866341745e-10      -1.005258099348e-12 
    5       1.185279682946e-10       3.780740327162e-15       3.404412186668e-13       1.129477739530e-18       2.609542861199e-09       1.937188165671e-10      -5.892552019474e-13 
    6       1.148186138609e-10       2.191702031990e-15       2.771824272968e-13       1.581598999024e-18       2.038253372595e-09       1.577410910425e-10      -2.714245012689e-13 
    7       1.124026794679e-10       1.184232529321e-15       2.190995139021e-13       2.109322239982e-18       1.644111658684e-09       1.313427863949e-10      -5.771284441963e-14 
    8       1.109643593140e-10       7.305199818526e-16       1.728679621380e-13       2.712770900153e-18       1.358249429601e-09       1.113177721173e-10       6.219746201995e-14 
    9       1.102609031315e-10       5.718397708859e-16       1.405337805639e-13       3.392091051234e-18       1.142945165175e-09       9.572972057232e-11       1.078217359672e-13 
   10       1.100969911096e-10       4.951551337395e-16       1.213770732678e-13       4.147452313788e-18       9.761443768650e-10       8.334855299199e-11       1.026721302790e-13 
   11       1.103710052159e-10       4.222313876884e-16       1.130446042784e-13       4.979048311948e-18       8.239422041174e-10       7.366212478422e-11       7.012326782218e-14 
   12       1.109625358028e-10       3.618226355721e-16       1.125481883399e-13       5.887096542827e-18       7.197981836701e-10       6.524181832816e-11       2.902879209047e-14 
   13       1.118104994421e-10       3.348308933722e-16       1.169915701954e-13       6.871837557702e-18       6.343005397637e-10       5.836472461647e-11      -6.831233770184e-15 
   14       1.128462527870e-10       3.403641928915e-16       1.240694288119e-13       7.933533380803e-18       5.631927727348e-10       5.235802583091e-11      -3.070727820090e-14 
   15       1.140593422270e-10       3.638290829534e-16       1.322634471250e-13       9.072465125774e-18       5.033353789173e-10       4.730447997508e-11      -4.047965848882e-14 
   16       1.154096830725e-10       3.959725971506e-16       1.406191838130e-13       1.028892980793e-17       4.524586185656e-10       4.297779426116e-11      -3.846066672438e-14 
   17       1.168727905331e-10       4.395467163914e-16       1.487553884898e-13       1.158323639062e-17       4.088195426812e-10       3.921426224641e-11      -2.908969545751e-14 
   18       1.184238802839e-10       5.026772769894e-16       1.568719193997e-13       1.295570158837e-17       3.709451512899e-10       3.588209834933e-11      -1.748226799606e-14 
   19       1.200735114378e-10       5.884852625355e-16       1.651968673442e-13       1.440664243650e-17       3.382367749472e-10       3.295802369781e-11      -7.078017817616e-15 
   20       1.217898122828e-10       6.972197147404e-16       1.739255582100e-13       1.593637540235e-17       3.094373689369e-10       3.038340818447e-11      -8.471997049030e-16 
   21       1.235781815036e-10       8.271993564203e-16       1.831684505516e-13       1.754520458489e-17       2.840907509624e-10       2.811555909454e-11       7.518721983265e-16 
   22       1.254249177430e-10       9.757864954524e-16       1.929348321028e-13       1.923342135981e-17       2.615844663108e-10       2.607926997050e-11      -1.491618554172e-15 
   23       1.273301961500e-10       1.143355937042e-15       2.029596929721e-13       2.100129361340e-17       2.416100507220e-10       2.424542517725e-11      -6.090521586706e-15 
   24       1.292794355799e-10       1.330897024169e-15       2.128259181668e-13       2.284906529983e-17       2.237086793002e-10       2.258058396023e-11      -1.107492135348e-14 
   25       1.312831316983e-10       1.537958883233e-15       2.221705474891e-13       2.477694767923e-17       2.076687579567e-10       2.108463915960e-11      -1.505863775686e-14 
   26       1.333416290607e-10       1.763794737603e-15       2.306374348740e-13       2.678511846004e-17       1.931977291680e-10       1.974942333981e-11      -1.691243583566e-14 
   27       1.354414860050e-10       2.009799508076e-15       2.380445884451e-13       2.887371636180e-17       1.801217277686e-10       1.854381343134e-11      -1.662540520321e-14 
   28       1.375573187114e-10       2.278115353603e-15       2.442869767095e-13       3.104284081850e-17       1.682155985688e-10       1.742368919214e-11      -1.467699772460e-14 
   29       1.396986386764e-10       2.570506385732e-15       2.493744106361e-13       3.329255583777e-17       1.574184022538e-10       1.638790641958e-11      -1.176831898437e-14 
   30       1.418756678109e-10       2.888737769957e-15       2.533836007290e-13       3.562288199302e-17       1.476138641979e-10       1.544140041167e-11      -8.856668981140e-15 
   31       1.440882755093e-10       3.234538306606e-15       2.564154478573e-13       3.803379872146e-17       1.386016085545e-10       1.458062779888e-11      -6.929989702762e-15 
   32       1.463391972707e-10       3.608903091606e-15       2.585105034805e-13       4.052526812005e-17       1.303349934796e-10       1.379757581150e-11      -6.138497548983e-15 
   33       1.486230788792e-10       4.012516646923e-15       2.597046514513e-13       4.309721510327e-17       1.227555357664e-10       1.307547376867e-11      -6.336285798830e-15 
   34       1.509281937338e-10       4.445989882943e-15       2.600133253558e-13       4.574953016309e-17       1.157571156732e-10       1.239386745238e-11      -7.281840742275e-15 
   35       1.532594635194e-10       4.910100924562e-15       2.592972100536e-13       4.848210990589e-17       1.093038269946e-10       1.175339052473e-11      -8.579518311985e-15 
   36       1.556218250354e-10       5.405626337352e-15       2.573464964461e-13       5.129482754705e-17       1.033437771511e-10       1.115884438215e-11      -9.703947002309e-15 
   37       1.580152445230e-10       5.933303138471e-15       2.539540324869e-13       5.418754017362e-17       9.779925868380e-11       1.061216868551e-11      -1.015101253989e-14 
   38       1.604411939586e-10       6.493934678039e-15       2.490544433475e-13       5.716015564484e-17       9.265588079717e-11       1.011173360241e-11      -9.932023138006e-15 
   39       1.628971220781e-10       7.088313473141e-15       2.426301264882e-13       6.021258699425e-17       8.789727067454e-11       9.652287663704e-12      -9.242093499070e-15 
   40       1.653738941536e-10       7.717189307136e-15       2.346748956284e-13       6.334473465129e-17       8.347796344464e-11       9.224743494830e-12      -8.332734122866e-15 
   41       1.678605333852e-10       8.381256218635e-15       2.251936233037e-13       6.655650798683e-17       7.933923000575e-11       8.819001710815e-12      -7.465410828615e-15 
   42       1.703618531937e-10       9.081115087350e-15       2.141993463636e-13       6.984789810562e-17       7.546885668154e-11       8.434285882492e-12      -6.744863952320e-15 
   43       1.728854783215e-10       9.817294168466e-15       2.017163960584e-13       7.321892894597e-17       7.185655529439e-11       8.071641445846e-12      -6.237954495933e-15 
   44       1.754366831555e-10       1.059025482861e-14       1.877819896186e-13       7.666963945631e-17       6.847602624457e-11       7.730989430057e-12      -6.019594860960e-15 
   45       1.780184746757e-10       1.140042284215e-14       1.724267549380e-13       8.020009206495e-17       6.529434633776e-11       7.411421379422e-12      -6.144395705670e-15 
   46       1.806325207175e-10       1.224830168273e-14       1.556078960364e-13       8.381039733287e-17       6.230648242863e-11       7.112423382219e-12      -6.550680699701e-15 
   47       1.832780301320e-10       1.313438714952e-14       1.372571045903e-13       8.750069939677e-17       5.950892803615e-11       6.832848977864e-12      -7.128366262283e-15 
   48       1.859511696746e-10       1.405913405609e-14       1.172984008827e-13       9.127117168757e-17       5.688929351238e-11       6.570481997449e-12      -7.743898521601e-15 
   49       1.886448088970e-10       1.502295473532e-14       9.564759828951e-14       9.512201892815e-17       5.442564560483e-11       6.321959919100e-12      -8.238947464885e-15 
   50       1.913515363725e-10       1.602617772590e-14       7.222768978891e-14       9.905346087455e-17       5.209310834722e-11       6.083758285206e-12      -8.474691787879e-15 
   51       1.940742654187e-10       1.706891408015e-14       4.702117356709e-14       1.030656737014e-16       4.988731023175e-11       5.855636783178e-12      -8.481874166912e-15 
   52       1.968180662077e-10       1.815115218263e-14       2.003100493748e-14       1.071588361597e-16       4.780615989984e-11       5.637996079407e-12      -8.349219552563e-15 
   53       1.995870472766e-10       1.927279110785e-14      -8.733875627714e-15       1.113331475545e-16       4.584282990662e-11       5.430872433414e-12      -8.182224048744e-15 
   54       2.023842543640e-10       2.043363725135e-14      -3.925832874004e-14       1.155888288836e-16       4.398543799290e-11       5.233910985540e-12      -8.103994507455e-15 
   55       2.052117668845e-10       2.163348369926e-14      -7.152932050610e-14       1.199260824647e-16       4.222066971207e-11       5.046564032913e-12      -8.223813969301e-15 
   56       2.080712471727e-10       2.287237914387e-14      -1.055637412886e-13       1.243449564617e-16       4.054643034267e-11       4.868804733124e-12      -8.531769950643e-15 
   57       2.109633504872e-10       2.415041987156e-14      -1.413871233101e-13       1.288454486985e-16       3.896177770537e-11       4.700543911153e-12      -8.979420177008e-15 
   58       2.138874478976e-10       2.546767273522e-14      -1.790258435125e-13       1.334275447536e-16       3.746309460538e-11       4.541403049040e-12      -9.509364558018e-15 
   59       2.168415328213e-10       2.682417500895e-14      -2.185072416771e-13       1.380912174818e-16       3.604392366367e-11       4.390696339357e-12      -1.005482734757e-14 
   60       2.198221275597e-10       2.821993424273e-14      -2.598597385431e-13       1.428364265353e-16       3.469480214832e-11       4.247412738663e-12      -1.053923930401e-14 
   61       2.228257251811e-10       2.965482144218e-14      -3.031040434191e-13       1.476630944046e-16       3.340588777517e-11       4.110494364027e-12      -1.089345356264e-14 
   62       2.258537048081e-10       3.112822291807e-14      -3.482242035939e-13       1.525710293385e-16       3.217589850497e-11       3.979785304967e-12      -1.111285416882e-14 
   63       2.289083587876e-10       3.263930967721e-14      -3.951902366866e-13       1.575599841945e-16       3.100489541702e-11       3.855264905315e-12      -1.121238304126e-14 
   64       2.319914108394e-10       3.418713374146e-14      -4.439663063908e-13       1.626296771933e-16       2.989159371291e-11       3.736761838559e-12      -1.121017625794e-14 
   65       2.351039713079e-10       3.577062461769e-14      -4.945105578704e-13       1.677797906954e-16       2.883328610313e-11       3.623945564053e-12      -1.112770572072e-14 
   66       2.382464924143e-10       3.738858576775e-14      -5.467749531554e-13       1.730099699770e-16       2.782576619372e-11       3.516317783218e-12      -1.098992081981e-14 
   67       2.414187235081e-10       3.903969107844e-14      -6.007051065371e-13       1.783198220067e-16       2.686325187289e-11       3.413203895748e-12      -1.082539009838e-14 
   68       2.446202333885e-10       4.072262940909e-14      -6.562498227350e-13       1.837089722588e-16       2.593992858025e-11       3.313933518532e-12      -1.066040761634e-14 
   69       2.478522001914e-10       4.243658013620e-14      -7.133923236088e-13       1.891772512562e-16       2.505511349020e-11       3.218443615361e-12      -1.049960864229e-14 
   70       2.511159054596e-10       4.418082806791e-14      -7.721250821695e-13       1.947245438017e-16       2.420900490434e-11       3.126782790243e-12      -1.034166263612e-14 
   71       2.544121694602e-10       4.595462414451e-14      -8.324407617008e-13       2.003507345410e-16       2.340112040033e-11       3.038929395822e-12      -1.018494855887e-14 
   72       2.577413209397e-10       4.775718569564e-14      -8.943322993067e-13       2.060557082233e-16       2.263026164781e-11       2.954787824949e-12      -1.002754218168e-14 
   73       2.611031668789e-10       4.958769669731e-14      -9.577929894604e-13       2.118393499622e-16       2.189447922419e-11       2.874184802249e-12      -9.867203394840e-15 
   74       2.644969622478e-10       5.144530802909e-14      -1.022816567553e-12       2.177015454962e-16       2.119103743053e-11       2.796865675689e-12      -9.701363516803e-15 
   75       2.679213797607e-10       5.332913773119e-14      -1.089397293440e-12       2.236421814493e-16       2.051637910735e-11       2.722490708144e-12      -9.527112603204e-15 
   76       2.713751128198e-10       5.523819736676e-14      -1.157523509586e-12       2.296612184133e-16       1.986700806170e-11       2.650723271284e-12      -9.342398967481e-15 
   77       2.748588781416e-10       5.717115503779e-14      -1.227156774624e-12       2.357589250035e-16       1.924239989796e-11       2.581521191933e-12      -9.149908327148e-15 
   78       2.783737250665e-10       5.912652942037e-14      -1.298249058813e-12       2.419356871559e-16       1.864256053467e-11       2.514892043484e-12      -8.953872268100e-15 
   79       2.819204177857e-10       6.110275858790e-14      -1.370748882427e-12       2.481919408176e-16       1.806713958006e-11       2.450804162425e-12      -8.758930757152e-15 
   80       2.854994180796e-10       6.309819875292e-14      -1.444601265499e-12       2.545281737011e-16       1.751541396420e-11       2.389184824437e-12      -8.570144308436e-15 
   81       2.891108680575e-10       6.511112300899e-14      -1.519747677558e-12       2.609449270380e-16       1.698627157127e-11       2.329918420494e-12      -8.393006149804e-15 
   82       2.927545728959e-10       6.713972007248e-14      -1.596125987371e-12       2.674427973328e-16       1.647819487167e-11       2.272844632964e-12      -8.233454389224e-15 
   83       2.964299835781e-10       6.918209302444e-14      -1.673670412680e-12       2.740224381170e-16       1.598924455434e-11       2.217756611707e-12      -8.097884181183e-15 
   84       3.001365148946e-10       7.123634007217e-14      -1.752315843230e-12       2.806845016387e-16       1.551753052645e-11       2.164452383424e-12      -7.991454255995e-15 
   85       3.038745978273e-10       7.330081497290e-14      -1.832011743390e-12       2.874294489837e-16       1.506275048042e-11       2.112902867166e-12      -7.912657291685e-15 
   86       3.076447707923e-10       7.537390767682e-14      -1.912710472856e-12       2.942577115459e-16       1.462487756509e-11       2.063108497709e-12      -7.857867546173e-15 
   87       3.114473484351e-10       7.745396626443e-14      -1.994363141183e-12       3.011697490261e-16       1.420368763984e-11       2.015047553268e-12      -7.822950207096e-15 
   88       3.152824100038e-10       7.953929706686e-14      -2.076919631023e-12       3.081660501766e-16       1.379875109786e-11       1.968675226271e-12      -7.803244892036e-15 
   89       3.191497877233e-10       8.162816478622e-14      -2.160328621367e-12       3.152471335455e-16       1.340942468935e-11       1.923922694137e-12      -7.793549148747e-15 
   90       3.230490551684e-10       8.371879261588e-14      -2.244537610784e-12       3.224135482212e-16       1.303484334482e-11       1.880696190047e-12      -7.788101955389e-15 
   91       3.269795156378e-10       8.580936236087e-14      -2.329492940663e-12       3.296658745768e-16       1.267391199831e-11       1.838876073729e-12      -7.780567220758e-15 
   92       3.309401905276e-10       8.789801455809e-14      -2.415139818450e-12       3.370047250147e-16       1.232529741070e-11       1.798315902225e-12      -7.764017284513e-15 
   93       3.349301280092e-10       8.998286972126e-14      -2.501421644135e-12       3.444306616355e-16       1.198774430713e-11       1.758878960859e-12      -7.732474335925e-15 
   94       3.389494074222e-10       9.206209546898e-14      -2.588277823341e-12       3.519439334652e-16       1.166109593907e-11       1.720556159324e-12      -7.685835698648e-15 
   95       3.429982651489e-10       9.413384976213e-14      -2.675645666762e-12       3.595447008994e-16       1.134541261108e-11       1.683364231637e-12      -7.625662249517e-15 
   96       3.470767806377e-10       9.619626108376e-14      -2.763461071105e-12       3.672331148668e-16       1.104065736810e-11       1.647309446423e-12      -7.553691323539e-15 
   97       3.511848691732e-10       9.824742884936e-14      -2.851658532766e-12       3.750093164330e-16       1.074669227047e-11       1.612387191896e-12      -7.471841599411e-15 
   98       3.553222746466e-10       1.002854238172e-13      -2.940171161505e-12       3.828734364047e-16       1.046327466899e-11       1.578581560846e-12      -7.382217985048e-15 
   99       3.594885623260e-10       1.023082884986e-13      -3.028930694124e-12       3.908255949338e-16       1.019005348003e-11       1.545864935628e-12      -7.287116503098e-15 
  100       3.636831116272e-10       1.043140375681e-13      -3.117867508141e-12       3.988659011213e-16       9.926565460533e-12       1.514197573147e-12      -7.189029176469e-15 
  101       3.679051088839e-10       1.063006582741e-13      -3.206910635467e-12       4.069944526218e-16       9.672231483130e-12       1.483527189839e-12      -7.090648913852e-15 
  102       3.721535401178e-10       1.082661108487e-13      -3.295987776084e-12       4.152113352470e-16       9.426352811167e-12       1.453788546666e-12      -6.994874395238e-15 
  103       3.764271838096e-10       1.102083289184e-13      -3.385025311715e-12       4.235166225702e-16       9.188107373781e-12       1.424903034093e-12      -6.904814957443e-15 
  104       3.807248684157e-10       1.121252741196e-13      -3.473949421079e-12       4.319104952484e-16       8.956736018893e-12       1.396797108449e-12      -6.823117810803e-15 
  105       3.850463001097e-10       1.140151074652e-13      -3.562689567754e-12       4.403936181993e-16       8.732137949420e-12       1.369461331236e-12      -6.749835661453e-15 
  106       3.893913338991e-10       1.158760419994e-13      -3.651175511159e-12       4.489668138745e-16       8.514349151918e-12       1.342898568589e-12      -6.684278802938e-15 
  107       3.937597145958e-10       1.177062916541e-13      -3.739336272528e-12       4.576309479997e-16       8.303357983839e-12       1.317105646747e-12      -6.625664531811e-15 
