# Matter power spectrum P(k) at redshift z=0
# for k=1.0347e-05 to 1.4771 h/Mpc,
# number of wavenumbers equal to 612
#    1:k (h/Mpc)              2:P (Mpc/h)^3        
       1.034698860059e-05       5.286239168883e+01 
       2.320384642927e-05       1.154537102278e+02 
       3.610552742768e-05       1.770578617893e+02 
       4.908661399019e-05       2.382884450710e+02 
       6.218225643874e-05       2.994991607357e+02 
       7.542848528121e-05       3.609579019869e+02 
       8.886253339297e-05       4.228954503745e+02 
       1.025231723928e-04       4.855254057921e+02 
       1.164510675175e-04       5.490543893810e+02 
       1.306891553322e-04       6.136882048422e+02 
       1.452830486212e-04       6.796360929902e+02 
       1.602814727479e-04       7.471140117558e+02 
       1.757367375976e-04       8.163473942417e+02 
       1.917052488604e-04       8.875736206637e+02 
       2.082480617697e-04       9.610278226685e+02 
       2.254314793620e-04       1.037009173784e+03 
       2.433276957019e-04       1.115789618360e+03 
       2.620154821035e-04       1.197676520602e+03 
       2.815809109153e-04       1.282991387639e+03 
       3.021181065931e-04       1.372090744494e+03 
       3.237300071977e-04       1.465430901934e+03 
       3.465291107203e-04       1.563279913551e+03 
       3.706381693886e-04       1.666168351286e+03 
       3.961907810810e-04       1.774699241914e+03 
       4.233318101817e-04       1.888998737816e+03 
       4.522175511463e-04       2.009721256167e+03 
       4.830155279929e-04       2.137465553730e+03 
       5.159038043499e-04       2.272741992455e+03 
       5.510696655253e-04       2.416052233422e+03 
       5.887075320004e-04       2.567869569790e+03 
       6.290159800052e-04       2.728656969933e+03 
       6.721937872040e-04       2.899005006425e+03 
       7.184349965047e-04       3.079178031994e+03 
       7.679231006851e-04       3.269621814791e+03 
       8.208245889142e-04       3.470223160351e+03 
       8.772822461820e-04       3.680765938951e+03 
       9.374087294109e-04       3.901490603169e+03 
       1.001281023594e-03       4.132318580659e+03 
       1.068936374073e-03       4.372737819474e+03 
       1.140370178698e-03       4.621988384917e+03 
       1.215536113907e-03       4.879131746759e+03 
       1.294348498427e-03       5.144360963825e+03 
       1.376686624069e-03       5.416249948517e+03 
       1.462400563694e-03       5.694202496507e+03 
       1.477104874446e-03       5.741394512299e+03 
       1.551317843771e-03       5.977265090198e+03 
       1.643250355858e-03       6.264605957780e+03 
       1.738000962082e-03       6.555342039566e+03 
       1.835369389860e-03       6.848879154161e+03 
       1.935157171637e-03       7.144106450411e+03 
       2.037171534074e-03       7.440766973991e+03 
       2.141228258183e-03       7.737820923763e+03 
       2.247153610461e-03       8.035013825149e+03 
       2.354785487487e-03       8.331692460241e+03 
       2.463973930290e-03       8.627349413312e+03 
       2.574581159043e-03       8.921636280192e+03 
       2.686481261581e-03       9.212759419091e+03 
       2.799559647107e-03       9.507220325789e+03 
       2.913712353615e-03       9.779118931088e+03 
       3.028845276487e-03       1.007714398928e+04 
       3.144873367664e-03       1.033985425224e+04 
       3.261719840091e-03       1.065298672662e+04 
       3.379315400604e-03       1.091399442495e+04 
       3.497597525789e-03       1.124508044652e+04 
       3.616509788905e-03       1.143257834574e+04 
       3.736001241521e-03       1.168725654387e+04 
       3.856025850345e-03       1.202454986605e+04 
       3.976541987712e-03       1.220222422069e+04 
       4.097511972928e-03       1.245366454269e+04 
       4.218901660940e-03       1.278789025499e+04 
       4.340680074459e-03       1.296227811245e+04 
       4.462819075601e-03       1.320997794237e+04 
       4.585293073203e-03       1.353126456836e+04 
       4.708078762133e-03       1.370487238574e+04 
       4.831154891227e-03       1.394559235584e+04 
       4.954502056691e-03       1.411132808888e+04 
       5.078102518179e-03       1.442041747499e+04 
       5.201940034948e-03       1.458772277715e+04 
       5.325999719858e-03       1.481709580933e+04 
       5.450267909132e-03       1.497755014281e+04 
       5.574732046112e-03       1.526779166357e+04 
       5.699380577387e-03       1.542974876760e+04 
       5.824202859886e-03       1.564683547628e+04 
       5.949189077687e-03       1.580085225880e+04 
       6.074330167448e-03       1.595413328771e+04 
       6.199617751480e-03       1.622415569704e+04 
       6.325044077601e-03       1.637462355469e+04 
       6.450601965044e-03       1.657514520181e+04 
       6.576284755715e-03       1.671934471041e+04 
       6.702086270248e-03       1.686338911581e+04 
       6.828000768317e-03       1.711018724952e+04 
       6.954022912760e-03       1.724932002829e+04 
       7.080147737099e-03       1.743281251066e+04 
       7.206370616112e-03       1.756686367263e+04 
       7.332687239126e-03       1.769837791251e+04 
       7.459093585760e-03       1.791970648512e+04 
       7.585585903859e-03       1.805093054704e+04 
       7.712160689409e-03       1.817538752630e+04 
       7.838814668225e-03       1.833949984667e+04 
       7.965544779239e-03       1.845992619692e+04 
       8.092348159241e-03       1.857811735822e+04 
       8.219222128916e-03       1.877493556783e+04 
       8.346164180067e-03       1.889042885295e+04 
       8.473171963907e-03       1.900262330247e+04 
       8.600243280318e-03       1.914682446566e+04 
       8.727376067988e-03       1.925353501085e+04 
       8.854568395354e-03       1.935725504366e+04 
       8.981818452263e-03       1.946048761662e+04 
       9.109124542299e-03       1.963077149002e+04 
       9.236485075715e-03       1.972943876638e+04 
       9.363898562909e-03       1.982469430300e+04 
       9.491363608413e-03       1.994881122859e+04 
       9.618878905331e-03       2.003862579406e+04 
       9.746443230202e-03       2.012645752828e+04 
       9.874055438253e-03       2.021283893796e+04 
       1.000171445900e-02       2.035736485210e+04 
       1.012941929218e-02       2.044036916368e+04 
       1.025716900397e-02       2.052034905541e+04 
       1.038496272350e-02       2.059772609423e+04 
       1.051279963958e-02       2.069910951503e+04 
       1.064067899773e-02       2.077228684986e+04 
       1.076860009736e-02       2.084257732550e+04 
       1.089656228915e-02       2.091152102041e+04 
       1.102456497269e-02       2.102989706373e+04 
       1.115260759417e-02       2.109607367860e+04 
       1.128068964436e-02       2.115912326087e+04 
       1.140881065661e-02       2.121900244181e+04 
       1.153697020509e-02       2.127738812463e+04 
       1.166516790307e-02       2.135759478153e+04 
       1.179340340140e-02       2.141081277892e+04 
       1.192167638704e-02       2.146238945354e+04 
       1.204998658167e-02       2.151296598218e+04 
       1.217833374051e-02       2.160580203834e+04 
       1.230671765110e-02       2.165380564770e+04 
       1.243513813220e-02       2.169891242845e+04 
       1.256359503283e-02       2.174104869142e+04 
       1.269208823132e-02       2.178246088525e+04 
       1.282061763439e-02       2.184043616538e+04 
       1.294918317643e-02       2.187775253398e+04 
       1.307778481870e-02       2.191186209043e+04 
       1.320642254864e-02       2.194530399291e+04 
       1.333509637926e-02       2.197784226043e+04 
       1.346380634855e-02       2.204491632094e+04 
       1.359255251892e-02       2.207423424214e+04 
       1.372133497673e-02       2.210158793903e+04 
       1.385015383182e-02       2.212616364639e+04 
       1.397900921712e-02       2.214916660186e+04 
       1.410790128825e-02       2.218753724615e+04 
       1.423683022320e-02       2.220731452221e+04 
       1.436579622201e-02       2.222465105723e+04 
       1.449479950653e-02       2.224194079672e+04 
       1.462384032012e-02       2.225643424870e+04 
       1.475291892752e-02       2.227082612992e+04 
       1.477104874446e-02       2.227269401997e+04 
       1.488203561458e-02       2.231456228615e+04 
       1.501119068819e-02       2.232518307820e+04 
       1.514038447607e-02       2.233390077369e+04 
       1.526961732674e-02       2.234201027284e+04 
       1.539888960936e-02       2.234909100417e+04 
       1.552820171377e-02       2.235366969704e+04 
       1.565755405035e-02       2.236897295862e+04 
       1.578694705010e-02       2.237041500758e+04 
       1.591638116458e-02       2.237056393030e+04 
       1.604585686599e-02       2.236912332849e+04 
       1.617537464718e-02       2.236627951751e+04 
       1.630493502174e-02       2.236254089636e+04 
       1.643453852407e-02       2.238336477288e+04 
       1.656418570952e-02       2.237789246498e+04 
       1.669387715447e-02       2.237146697271e+04 
       1.682361345650e-02       2.236218795801e+04 
       1.695339523455e-02       2.235212732968e+04 
       1.708322312908e-02       2.234037178511e+04 
       1.721309780229e-02       2.232681625684e+04 
       1.734301993830e-02       2.232448195555e+04 
       1.747299024340e-02       2.230898360131e+04 
       1.760300944628e-02       2.229263829776e+04 
       1.773307829833e-02       2.227312263238e+04 
       1.786319757386e-02       2.225466967625e+04 
       1.799336807044e-02       2.223434902742e+04 
       1.812359060919e-02       2.221366875037e+04 
       1.825386603510e-02       2.221296628185e+04 
       1.838419521742e-02       2.219063505887e+04 
       1.851457904996e-02       2.216612713561e+04 
       1.864501845152e-02       2.214151957314e+04 
       1.877551436625e-02       2.211445693343e+04 
       1.890606776409e-02       2.208758454245e+04 
       1.903667964116e-02       2.205884812471e+04 
       1.916735102027e-02       2.202882117842e+04 
       1.929808295132e-02       2.200737194456e+04 
       1.942887651183e-02       2.197668314565e+04 
       1.955973280742e-02       2.194370048549e+04 
       1.969065297231e-02       2.191091367157e+04 
       1.982163816991e-02       2.187630190744e+04 
       1.995268959335e-02       2.184129224356e+04 
       2.008380846604e-02       2.180544413710e+04 
       2.021499604229e-02       2.178630831541e+04 
       2.034625360794e-02       2.174942222358e+04 
       2.047758248096e-02       2.171127583521e+04 
       2.060898401215e-02       2.167230093922e+04 
       2.074045958578e-02       2.163201806760e+04 
       2.087201062034e-02       2.159097757358e+04 
       2.100363856925e-02       2.154838739095e+04 
       2.113534492157e-02       2.150579693560e+04 
       2.126713120287e-02       2.146309033478e+04 
       2.139899897590e-02       2.142695985753e+04 
       2.153094984154e-02       2.138183678854e+04 
       2.166298543957e-02       2.133630346114e+04 
       2.179510744958e-02       2.129020208556e+04 
       2.192731759186e-02       2.124301972155e+04 
       2.205961762835e-02       2.119566689896e+04 
       2.219200936360e-02       2.114763290259e+04 
       2.232449464574e-02       2.109903294642e+04 
       2.245707536753e-02       2.106461016377e+04 
       2.258975346741e-02       2.101499902846e+04 
       2.272253093058e-02       2.096522280143e+04 
       2.285540979015e-02       2.091396590972e+04 
       2.298839212825e-02       2.086272795603e+04 
       2.312148007727e-02       2.081024879542e+04 
       2.325467582106e-02       2.075755915282e+04 
       2.338798159624e-02       2.070435613401e+04 
       2.352139969346e-02       2.064986509544e+04 
       2.365493245880e-02       2.059553229355e+04 
       2.378858229514e-02       2.054593042195e+04 
       2.392235166360e-02       2.049015128211e+04 
       2.405624308504e-02       2.043393685301e+04 
       2.419025914158e-02       2.037733479121e+04 
       2.432440247819e-02       2.032057158932e+04 
       2.445867580432e-02       2.026278932381e+04 
       2.459308189560e-02       2.020462114445e+04 
       2.472762359556e-02       2.014692810460e+04 
       2.486230381745e-02       2.008842036234e+04 
       2.499712554609e-02       2.004039471997e+04 
       2.513209183979e-02       1.998158224073e+04 
       2.526720583234e-02       1.992166485650e+04 
       2.540247073504e-02       1.986207892486e+04 
       2.553788983887e-02       1.980157913663e+04 
       2.567346651660e-02       1.974067451445e+04 
       2.580920422512e-02       1.967919939488e+04 
       2.594510650778e-02       1.961779775228e+04 
       2.608117699677e-02       1.955564090233e+04 
       2.621741941567e-02       1.949342970240e+04 
       2.635383758201e-02       1.943573043936e+04 
       2.649043541000e-02       1.937282205994e+04 
       2.662721691324e-02       1.930942017817e+04 
       2.676418620767e-02       1.924570397564e+04 
       2.690134751451e-02       1.918245688287e+04 
       2.703870516335e-02       1.911845190229e+04 
       2.717626359538e-02       1.905417783750e+04 
       2.731402736664e-02       1.898975081474e+04 
       2.745200115152e-02       1.892542787382e+04 
       2.759018974632e-02       1.886056616447e+04 
       2.772859807290e-02       1.879557334021e+04 
       2.786723118256e-02       1.873908977609e+04 
       2.800609425999e-02       1.867355593331e+04 
       2.814519262743e-02       1.860874637798e+04 
       2.828453174892e-02       1.854315243320e+04 
       2.842411723480e-02       1.847656236399e+04 
       2.856395484629e-02       1.841113128174e+04 
       2.870405050034e-02       1.834505022918e+04 
       2.884441027460e-02       1.827837009567e+04 
       2.898504041264e-02       1.821174635434e+04 
       2.912594732931e-02       1.814511053076e+04 
       2.926713761644e-02       1.807802382972e+04 
       2.940861804859e-02       1.801487079312e+04 
       2.955039558926e-02       1.794774820347e+04 
       2.969247739712e-02       1.788031974044e+04 
       2.983487083272e-02       1.781273871579e+04 
       2.997758346529e-02       1.774541515553e+04 
       3.012062308001e-02       1.767788038600e+04 
       3.026399768540e-02       1.761020834654e+04 
       3.040771552121e-02       1.754203753616e+04 
       3.055178506654e-02       1.747424735609e+04 
       3.069621504835e-02       1.740662205354e+04 
       3.084101445033e-02       1.733904465320e+04 
       3.098619252223e-02       1.727731580616e+04 
       3.113175878951e-02       1.720968246045e+04 
       3.127772306353e-02       1.714181084373e+04 
       3.142409545212e-02       1.707401517825e+04 
       3.157088637072e-02       1.700575600120e+04 
       3.171810655396e-02       1.693773182068e+04 
       3.186576706789e-02       1.686970325634e+04 
       3.201387932267e-02       1.680134457348e+04 
       3.216245508598e-02       1.673316862347e+04 
       3.231150649702e-02       1.666498668923e+04 
       3.246104608120e-02       1.659653716904e+04 
       3.261108676562e-02       1.652845655416e+04 
       3.276164189523e-02       1.646300424818e+04 
       3.291272524986e-02       1.639491466405e+04 
       3.306435106215e-02       1.632652977182e+04 
       3.321653403633e-02       1.625841597358e+04 
       3.336928936805e-02       1.619020314415e+04 
       3.352263276521e-02       1.612192356835e+04 
       3.367658046992e-02       1.605387204086e+04 
       3.383114928164e-02       1.598582844623e+04 
       3.398635658153e-02       1.591774082869e+04 
       3.414222035828e-02       1.584969895479e+04 
       3.429875923516e-02       1.578176158462e+04 
       3.445599249881e-02       1.571405176229e+04 
       3.461394012949e-02       1.565087151626e+04 
       3.477262283319e-02       1.558312189987e+04 
       3.493206207553e-02       1.551566988872e+04 
       3.509228011770e-02       1.544774534187e+04 
       3.525330005451e-02       1.538000051067e+04 
       3.541514585471e-02       1.531234313786e+04 
       3.557784240385e-02       1.524449056483e+04 
       3.574141554967e-02       1.517691198970e+04 
       3.590589215039e-02       1.510929184167e+04 
       3.607130012605e-02       1.504159342204e+04 
       3.623766851305e-02       1.497416641672e+04 
       3.640502752237e-02       1.490669492615e+04 
       3.657340860144e-02       1.484147783924e+04 
       3.674284450023e-02       1.477396960155e+04 
       3.691336934172e-02       1.470670379089e+04 
       3.708501869721e-02       1.463946418656e+04 
       3.725782966684e-02       1.457207540675e+04 
       3.743184096566e-02       1.450490002170e+04 
       3.760709301589e-02       1.443774780356e+04 
       3.778362804578e-02       1.437052778972e+04 
       3.796149019569e-02       1.430354593043e+04 
       3.814072563198e-02       1.423655802413e+04 
       3.832138266946e-02       1.416968062042e+04 
       3.850351190317e-02       1.410276486046e+04 
       3.868716635034e-02       1.403593110737e+04 
       3.887240160339e-02       1.397290016999e+04 
       3.905927599524e-02       1.390613543743e+04 
       3.924785077786e-02       1.383955133047e+04 
       3.943819031550e-02       1.377285897352e+04 
       3.963036229403e-02       1.370607343550e+04 
       3.982443794800e-02       1.363947608371e+04 
       4.002049230723e-02       1.357282790194e+04 
       4.021860446498e-02       1.350614211388e+04 
       4.041885786993e-02       1.343940304580e+04 
       4.062134064461e-02       1.337285944999e+04 
       4.082614593310e-02       1.330613586175e+04 
       4.103337228131e-02       1.324104094235e+04 
       4.124312405347e-02       1.317438627262e+04 
       4.145551188903e-02       1.310749479118e+04 
       4.167065320468e-02       1.304074771324e+04 
       4.188867274702e-02       1.297411815502e+04 
       4.210970320174e-02       1.290720319124e+04 
       4.233388586663e-02       1.284010270126e+04 
       4.256137139634e-02       1.277317457745e+04 
       4.279232062804e-02       1.270609695900e+04 
       4.302690549884e-02       1.263902811742e+04 
       4.326531006707e-02       1.257194496721e+04 
       4.350773165169e-02       1.250725327651e+04 
       4.375438210642e-02       1.243997460525e+04 
       4.400548924763e-02       1.237238297842e+04 
       4.426129845858e-02       1.230469423154e+04 
       4.452207449624e-02       1.223681172140e+04 
       4.478810353144e-02       1.216874668283e+04 
       4.505969545891e-02       1.210036259704e+04 
       4.533718652002e-02       1.203187408896e+04 
       4.562094228950e-02       1.196301521028e+04 
       4.591136108677e-02       1.189402630885e+04 
       4.620887788469e-02       1.182578313263e+04 
       4.651396880302e-02       1.175613849453e+04 
       4.682715629164e-02       1.168611111343e+04 
       4.714901513095e-02       1.161559043990e+04 
       4.748017940377e-02       1.154476623583e+04 
       4.782135062759e-02       1.147337796286e+04 
       4.817330727806e-02       1.140163420584e+04 
       4.853691598815e-02       1.132928211791e+04 
       4.891314477456e-02       1.125842081189e+04 
       4.930307872758e-02       1.118473000193e+04 
       4.970793870845e-02       1.111038013551e+04 
       5.012910373494e-02       1.103508632234e+04 
       5.056813791005e-02       1.095892102897e+04 
       5.102682297127e-02       1.088160027020e+04 
       5.150719782050e-02       1.080323586909e+04 
       5.201160675367e-02       1.072449590011e+04 
       5.254275856057e-02       1.064338658396e+04 
       5.310379922485e-02       1.056061835622e+04 
       5.369840162856e-02       1.047594106237e+04 
       5.433087644092e-02       1.038916742498e+04 
       5.500630917823e-02       1.030162112301e+04 
       5.573072907923e-02       1.020943046907e+04 
       5.651131553291e-02       1.011360446252e+04 
       5.735664644938e-02       1.001345555581e+04 
       5.827698844208e-02       9.908729347960e+03 
       5.928461771429e-02       9.796808748986e+03 
