# dimensionless total [l(l+1)/2pi] C_l's
# for l=2 to 3100, i.e. number of multipoles equal to 3099
#
# -> if you prefer output in CAMB/HealPix/LensPix units/order, set 'format' to 'camb' in input file
# -> if you don't want to see such a header, set 'headers' to 'no' in input file
# -> for CMB lensing (phi), these are C_l^phi-phi for the lensing potential.
#    Remember the conversion factors:
#    C_l^dd (deflection) = l(l+1) C_l^phi-phi
#    C_l^gg (shear/convergence) = 1/4 (l(l+1))^2 C_l^phi-phi
#
# 1:l     2:TT                     3:EE                     4:TE                     5:BB                     6:phiphi                 7:TPhi                   8:Ephi               
    2       1.425350760189e-10       4.492532620694e-15       3.647555807040e-13       0.000000000000e+00       7.719780857618e-09       4.712265438617e-10      -1.906734352907e-12 
    3       1.350464590417e-10       5.995695256994e-15       4.157355189197e-13       0.000000000000e+00       4.712745456798e-09       3.387231730779e-10      -1.479671955180e-12 
    4       1.278262454874e-10       5.416001526789e-15       3.943235829318e-13       0.000000000000e+00       3.258929357057e-09       2.599009163215e-10      -1.000884069478e-12 
    5       1.222626358973e-10       3.779430699939e-15       3.405217506482e-13       0.000000000000e+00       2.422331224366e-09       2.077880878706e-10      -5.854823041779e-13 
    6       1.184163065187e-10       2.190937041257e-15       2.777700191386e-13       0.000000000000e+00       1.885495162717e-09       1.709894169602e-10      -2.679438913282e-13 
    7       1.159099753271e-10       1.183365409485e-15       2.201181953068e-13       0.000000000000e+00       1.516494388942e-09       1.438168785025e-10      -5.440359730990e-14 
    8       1.142666960748e-10       7.291654983027e-16       1.741212433982e-13       0.000000000000e+00       1.249933276262e-09       1.230112675439e-10       6.529081204005e-14 
    9       1.133283639879e-10       5.697947234658e-16       1.417016045574e-13       0.000000000000e+00       1.049912513372e-09       1.066543174519e-10       1.106017334064e-13 
   10       1.130496879017e-10       4.921854069014e-16       1.222414463121e-13       0.000000000000e+00       8.953203161535e-10       9.359985054110e-11       1.051462877487e-13 
   11       1.132156496123e-10       4.178981400541e-16       1.136849633421e-13       0.000000000000e+00       7.580910436706e-10       8.334141382967e-11       7.235747806816e-14 
   12       1.136143318036e-10       3.555929853492e-16       1.129346106678e-13       0.000000000000e+00       6.615806753824e-10       7.444338932461e-11       3.121164431887e-14 
   13       1.143392416412e-10       3.268160460500e-16       1.170199318582e-13       0.000000000000e+00       5.822612859551e-10       6.709490461516e-11      -4.706236924696e-15 
   14       1.153854298087e-10       3.310842692081e-16       1.239813024109e-13       0.000000000000e+00       5.165924762742e-10       6.067239224601e-11      -2.877518150944e-14 
   15       1.165111751645e-10       3.531690673531e-16       1.322022912481e-13       0.000000000000e+00       4.611884468753e-10       5.521480068543e-11      -3.867391901829e-14 
   16       1.176763195290e-10       3.839450669734e-16       1.404547055147e-13       0.000000000000e+00       4.142665446438e-10       5.053521360566e-11      -3.670375525617e-14 
   17       1.189942406273e-10       4.270011743772e-16       1.486207176900e-13       0.000000000000e+00       3.740213609335e-10       4.643107678856e-11      -2.740907834906e-14 
   18       1.204576623391e-10       4.891897590862e-16       1.569665073352e-13       0.000000000000e+00       3.390826054731e-10       4.278047015594e-11      -1.595707543204e-14 
   19       1.220675555715e-10       5.736079118758e-16       1.655515350360e-13       0.000000000000e+00       3.089480127414e-10       3.956154714880e-11      -5.763639590753e-15 
   20       1.237723176806e-10       6.810359445084e-16       1.743573278546e-13       0.000000000000e+00       2.824872530293e-10       3.670083570799e-11       2.559552540781e-16 
   21       1.255212052897e-10       8.093425957460e-16       1.835129838727e-13       0.000000000000e+00       2.592387067404e-10       3.416676519535e-11       1.709092793230e-15 
   22       1.272465911290e-10       9.552736471641e-16       1.931372549311e-13       0.000000000000e+00       2.385780308371e-10       3.189782461856e-11      -5.624438845367e-16 
   23       1.290234175351e-10       1.119941310992e-15       2.030319824726e-13       0.000000000000e+00       2.202368400732e-10       2.985615488794e-11      -5.142789612609e-15 
   24       1.309378039618e-10       1.305376230376e-15       2.128295926302e-13       0.000000000000e+00       2.038302050769e-10       2.799005240255e-11      -1.016967987359e-14 
   25       1.329401312110e-10       1.510618912861e-15       2.221556819568e-13       0.000000000000e+00       1.891533840497e-10       2.629855962623e-11      -1.425079514586e-14 
   26       1.349308309531e-10       1.734020286202e-15       2.306244895950e-13       0.000000000000e+00       1.759137253428e-10       2.477660538584e-11      -1.621015410864e-14 
   27       1.369301831676e-10       1.977247626368e-15       2.380574504724e-13       0.000000000000e+00       1.639509065826e-10       2.339502208714e-11      -1.599994645668e-14 
   28       1.389825493571e-10       2.243038626778e-15       2.443596601673e-13       0.000000000000e+00       1.530644829670e-10       2.210966120081e-11      -1.407268616939e-14 
   29       1.410947619798e-10       2.533154194220e-15       2.495299098090e-13       0.000000000000e+00       1.431984092086e-10       2.091724495561e-11      -1.115416474683e-14 
   30       1.432463083688e-10       2.849129862587e-15       2.536233337462e-13       0.000000000000e+00       1.342438099883e-10       1.981784217182e-11      -8.251427265936e-15 
   31       1.454071190435e-10       3.192461959654e-15       2.567182853522e-13       0.000000000000e+00       1.260148313055e-10       1.880261465542e-11      -6.397251158590e-15 
   32       1.475883563233e-10       3.564159491083e-15       2.588505992207e-13       0.000000000000e+00       1.184686098023e-10       1.786720086620e-11      -5.713902367294e-15 
   33       1.498082462451e-10       3.965012257742e-15       2.600575012170e-13       0.000000000000e+00       1.115523196942e-10       1.700145127319e-11      -5.996112010424e-15 
   34       1.520768291433e-10       4.395718104650e-15       2.603586706760e-13       0.000000000000e+00       1.051695424610e-10       1.619025057104e-11      -6.948518891640e-15 
   35       1.543922833969e-10       4.856958620542e-15       2.596274191700e-13       0.000000000000e+00       9.928706607960e-11       1.543194195818e-11      -8.198307022255e-15 
   36       1.567414014080e-10       5.349335490731e-15       2.576717874412e-13       0.000000000000e+00       9.385669193149e-11       1.472530143892e-11      -9.274064384540e-15 
   37       1.591063335764e-10       5.873430040777e-15       2.543010732623e-13       0.000000000000e+00       8.880662604791e-11       1.406602265914e-11      -9.723463259150e-15 
   38       1.614883452185e-10       6.430103151712e-15       2.494462257291e-13       0.000000000000e+00       8.412342894791e-11       1.345295582463e-11      -9.554244254002e-15 
   39       1.638906208088e-10       7.020289262781e-15       2.430783332909e-13       0.000000000000e+00       7.979200924440e-11       1.288328751289e-11      -8.938331212053e-15 
   40       1.663111953024e-10       7.644915479968e-15       2.351770406578e-13       0.000000000000e+00       7.577072123900e-11       1.235045526273e-11      -8.098164574453e-15 
   41       1.687462278146e-10       8.304844499279e-15       2.257338967758e-13       0.000000000000e+00       7.200581608948e-11       1.184643249909e-11      -7.267987674295e-15 
   42       1.712024349296e-10       9.000682217365e-15       2.147624765967e-13       0.000000000000e+00       6.848601733881e-11       1.137025740557e-11      -6.554294603733e-15 
   43       1.736877732278e-10       9.732906660391e-15       2.022924175558e-13       0.000000000000e+00       6.520181570802e-11       1.092173469676e-11      -6.035732595644e-15 
   44       1.762076763398e-10       1.050191485742e-14       1.883675637732e-13       0.000000000000e+00       6.212909586337e-11       1.049892380775e-11      -5.801854572223e-15 
   45       1.787649179163e-10       1.130806164342e-14       1.730253372425e-13       0.000000000000e+00       5.923770851211e-11       1.009899632274e-11      -5.921368002380e-15 
   46       1.813598381441e-10       1.215180025598e-14       1.562258406629e-13       0.000000000000e+00       5.652298053205e-11       9.721455385635e-12      -6.334334540720e-15 
   47       1.839896894304e-10       1.303357629731e-14       1.379027548490e-13       0.000000000000e+00       5.398164882306e-11       9.365632293605e-12      -6.928628375776e-15 
   48       1.866482129196e-10       1.395378632986e-14       1.179823184150e-13       0.000000000000e+00       5.160235858712e-11       9.029682823275e-12      -7.568107379667e-15 
   49       1.893253560746e-10       1.491277597014e-14       9.638280218155e-14       0.000000000000e+00       4.936506209215e-11       8.710500060227e-12      -8.091275414201e-15 
   50       1.920110410423e-10       1.591082495590e-14       7.302864288637e-14       0.000000000000e+00       4.724704258718e-11       8.404684902386e-12      -8.355967277949e-15 
   51       1.947083308396e-10       1.694810199124e-14       4.789858647903e-14       0.000000000000e+00       4.524430856818e-11       8.111970366829e-12      -8.390806180388e-15 
   52       1.974233488015e-10       1.802469434985e-14       2.098970425988e-14       0.000000000000e+00       4.335496747045e-11       7.832576092797e-12      -8.282545401115e-15 
   53       2.001614505343e-10       1.914061737113e-14      -7.695963914736e-15       0.000000000000e+00       4.157282547664e-11       7.566195395459e-12      -8.134447249026e-15 
   54       2.029271321216e-10       2.029581194101e-14      -3.815124537577e-14       0.000000000000e+00       3.988709805257e-11       7.311957868306e-12      -8.067111139754e-15 
   55       2.057238525181e-10       2.149019064451e-14      -7.036993415813e-14       0.000000000000e+00       3.828569364361e-11       7.068787735073e-12      -8.187852260072e-15 
   56       2.085536593542e-10       2.272379542031e-14      -1.043672402529e-13       0.000000000000e+00       3.676668315743e-11       6.836668827893e-12      -8.488032486098e-15 
   57       2.114173093889e-10       2.399667465851e-14      -1.401641326798e-13       0.000000000000e+00       3.532917272767e-11       6.615628352022e-12      -8.921674703730e-15 
   58       2.143142531121e-10       2.530883735100e-14      -1.777815988451e-13       0.000000000000e+00       3.396983320854e-11       6.405347168341e-12      -9.434289032369e-15 
   59       2.172425396074e-10       2.666025246870e-14      -2.172407243280e-13       0.000000000000e+00       3.268274992463e-11       6.205137814561e-12      -9.962475600548e-15 
   60       2.201987214149e-10       2.805084833866e-14      -2.585627726669e-13       0.000000000000e+00       3.145927242076e-11       6.013922526420e-12      -1.043352732156e-14 
   61       2.231792741373e-10       2.948042402958e-14      -3.017621149702e-13       0.000000000000e+00       3.029041061426e-11       5.830553751279e-12      -1.078170655649e-14 
   62       2.261854428426e-10       3.094836167415e-14      -3.468229837183e-13       0.000000000000e+00       2.917499166135e-11       5.654909480557e-12      -1.100224303063e-14 
   63       2.292193196164e-10       3.245384817523e-14      -3.937176189388e-13       0.000000000000e+00       2.811307569772e-11       5.487005893546e-12      -1.110880660707e-14 
   64       2.322823786684e-10       3.399595415245e-14      -4.424128137784e-13       0.000000000000e+00       2.710350291866e-11       5.326665668419e-12      -1.111803214191e-14 
   65       2.353754292560e-10       3.557363052739e-14      -4.928697674201e-13       0.000000000000e+00       2.614382412429e-11       5.173506870450e-12      -1.104965130981e-14 
   66       2.384985686097e-10       3.718570510888e-14      -5.450439379993e-13       0.000000000000e+00       2.523023126479e-11       5.026931840242e-12      -1.092662442937e-14 
   67       2.416511348571e-10       3.883087917821e-14      -5.988848955209e-13       0.000000000000e+00       2.435748798565e-11       4.886116081955e-12      -1.077527228866e-14 
   68       2.448323547207e-10       4.050786739762e-14      -6.543451560653e-13       0.000000000000e+00       2.352032713186e-11       4.750235843183e-12      -1.061988089493e-14 
   69       2.480435442358e-10       4.221585808832e-14      -7.114090918181e-13       0.000000000000e+00       2.271812733714e-11       4.619229240895e-12      -1.046495158448e-14 
   70       2.512862714368e-10       4.395414051103e-14      -7.700696416617e-13       0.000000000000e+00       2.195106361714e-11       4.493170106580e-12      -1.030957460976e-14 
   71       2.545616722579e-10       4.572197004100e-14      -8.303199293292e-13       0.000000000000e+00       2.121869288959e-11       4.372038022917e-12      -1.015262862893e-14 
   72       2.578704212273e-10       4.751856841887e-14      -8.921533460213e-13       0.000000000000e+00       2.051992203767e-11       4.255713316648e-12      -9.992771173877e-15 
   73       2.612127021608e-10       4.934312400142e-14      -9.555636330238e-13       0.000000000000e+00       1.985297597340e-11       4.143972051450e-12      -9.828429118243e-15 
   74       2.645881788552e-10       5.119479201238e-14      -1.020544964325e-12       0.000000000000e+00       1.921536570093e-11       4.036481020804e-12      -9.657789145483e-15 
   75       2.679959657826e-10       5.307269479326e-14      -1.087092029231e-12       0.000000000000e+00       1.860385638000e-11       3.932792740872e-12      -9.478788216888e-15 
   76       2.714351061920e-10       5.497584793576e-14      -1.155193374340e-12       0.000000000000e+00       1.801526920190e-11       3.832465197905e-12      -9.290151026244e-15 
   77       2.749061718530e-10       5.690292257368e-14      -1.224809845132e-12       0.000000000000e+00       1.744912643041e-11       3.735457368868e-12      -9.094741846012e-15 
   78       2.784099031451e-10       5.885243999807e-14      -1.295892344933e-12       0.000000000000e+00       1.690543291539e-11       3.641797064061e-12      -8.896809428561e-15 
   79       2.819467089329e-10       6.082284068155e-14      -1.368388172092e-12       0.000000000000e+00       1.638387047141e-11       3.551460161763e-12      -8.701005987984e-15 
   80       2.855166476644e-10       6.281248300924e-14      -1.442240964383e-12       0.000000000000e+00       1.588378303916e-11       3.464368159296e-12      -8.512399137438e-15 
   81       2.891194084701e-10       6.481964200972e-14      -1.517390643393e-12       0.000000000000e+00       1.540416184679e-11       3.380385724092e-12      -8.336483826487e-15 
   82       2.927542922610e-10       6.684250808594e-14      -1.593773358921e-12       0.000000000000e+00       1.494363057130e-11       3.299318244754e-12      -8.179194278443e-15 
   83       2.964201928273e-10       6.887918574620e-14      -1.671321433369e-12       0.000000000000e+00       1.450043049989e-11       3.220909382123e-12      -8.046915927716e-15 
   84       3.001160476017e-10       7.092777482797e-14      -1.749968265390e-12       0.000000000000e+00       1.407284768485e-11       3.144907491640e-12      -7.944763039650e-15 
   85       3.038423172108e-10       7.298663242035e-14      -1.829664096637e-12       0.000000000000e+00       1.366060827485e-11       3.071282906635e-12      -7.871057349170e-15 
   86       3.075997176877e-10       7.505415223795e-14      -1.910362769010e-12       0.000000000000e+00       1.326368836959e-11       3.000042353485e-12      -7.821951728114e-15 
   87       3.113887617692e-10       7.712868610428e-14      -1.992017025136e-12       0.000000000000e+00       1.288188529207e-11       2.931162010589e-12      -7.793066162742e-15 
   88       3.152097478882e-10       7.920854406912e-14      -2.074578536115e-12       0.000000000000e+00       1.251481017835e-11       2.864586216938e-12      -7.779470542889e-15 
   89       3.190627491656e-10       8.129199452590e-14      -2.157997929261e-12       0.000000000000e+00       1.216188056744e-11       2.800226180675e-12      -7.775667451117e-15 
   90       3.229476024024e-10       8.337726432911e-14      -2.242224815848e-12       0.000000000000e+00       1.182231299108e-11       2.737958687666e-12      -7.775574951861e-15 
   91       3.268638970714e-10       8.546253891161e-14      -2.327207818851e-12       0.000000000000e+00       1.149511556362e-11       2.677624810063e-12      -7.772509380579e-15 
   92       3.308109643100e-10       8.754596240208e-14      -2.412894600691e-12       0.000000000000e+00       1.117908057181e-11       2.619028614870e-12      -7.759168132908e-15 
   93       3.347881213463e-10       8.962565833695e-14      -2.499230674629e-12       0.000000000000e+00       1.087307088310e-11       2.561986945991e-12      -7.729266263099e-15 
   94       3.387954707417e-10       9.169979510481e-14      -2.586155574206e-12       0.000000000000e+00       1.057694454035e-11       2.506490140086e-12      -7.682765227373e-15 
   95       3.428332015617e-10       9.376653060767e-14      -2.673606156300e-12       0.000000000000e+00       1.029075617260e-11       2.452563207131e-12      -7.621402381981e-15 
   96       3.469013372500e-10       9.582399293810e-14      -2.761517777042e-12       0.000000000000e+00       1.001447223538e-11       2.400216328231e-12      -7.547112661134e-15 
   97       3.509997281272e-10       9.787028077928e-14      -2.849824302859e-12       0.000000000000e+00       9.747967633670e-12       2.349444265265e-12      -7.462034067724e-15 
   98       3.551280438890e-10       9.990346380511e-14      -2.938458121527e-12       0.000000000000e+00       9.491022344991e-12       2.300225770528e-12      -7.368513164041e-15 
   99       3.592857661048e-10       1.019215830803e-13      -3.027350153212e-12       0.000000000000e+00       9.243318042401e-12       2.252522996374e-12      -7.269110562493e-15 
  100       3.634721807156e-10       1.039226514603e-13      -3.116429861521e-12       0.000000000000e+00       9.004434717533e-12       2.206280904858e-12      -7.166606416323e-15 
  101       3.676863705329e-10       1.059046539916e-13      -3.205625264545e-12       0.000000000000e+00       8.773847303620e-12       2.161426677381e-12      -7.064005910332e-15 
  102       3.719272077365e-10       1.078655483116e-13      -3.294862945911e-12       0.000000000000e+00       8.550922298528e-12       2.117869124330e-12      -6.964544751593e-15 
  103       3.761933463733e-10       1.098032650490e-13      -3.384068065823e-12       0.000000000000e+00       8.334914387782e-12       2.075498094723e-12      -6.871694660175e-15 
  104       3.804835091978e-10       1.117157620926e-13      -3.473165782820e-12       0.000000000000e+00       8.125135322468e-12       2.034210927551e-12      -6.788407292321e-15 
  105       3.847974084806e-10       1.136011948866e-13      -3.562085713968e-12       0.000000000000e+00       7.921493807621e-12       1.993997146779e-12      -6.714717864329e-15 
  106       3.891349361818e-10       1.154577699931e-13      -3.650758100572e-12       0.000000000000e+00       7.724022588767e-12       1.954864160073e-12      -6.649826542468e-15 
  107       3.934958765005e-10       1.172836942566e-13      -3.739112477504e-12       0.000000000000e+00       7.532711243528e-12       1.916810949108e-12      -6.592828259744e-15 
