# Matter power spectrum P(k) at redshift z=0
# for k=1.04143e-05 to 1.4771 h/Mpc,
# number of wavenumbers equal to 614
#    1:k (h/Mpc)              2:P (Mpc/h)^3        
       1.041428747581e-05       4.824233060193e+01 
       2.327047515675e-05       1.049980346604e+02 
       3.617165944113e-05       1.608687988423e+02 
       4.915241830092e-05       2.164119588118e+02 
       6.224789908830e-05       2.719510335397e+02 
       7.549413073537e-05       3.277323713683e+02 
       8.892834589526e-05       3.839691674321e+02 
       1.025893172940e-04       4.408595741511e+02 
       1.165177125956e-04       4.985960502900e+02 
       1.307564721161e-04       5.573710800764e+02 
       1.453512137291e-04       6.173811946907e+02 
       1.603506692486e-04       6.788301444558e+02 
       1.758071564005e-04       7.419316382830e+02 
       1.917770901366e-04       8.069118725797e+02 
       2.083215363997e-04       8.740119745517e+02 
       2.255068104014e-04       9.434904303702e+02 
       2.434051198447e-04       1.015625533571e+03 
       2.620952511128e-04       1.090717862017e+03 
       2.816632929744e-04       1.169092766672e+03 
       3.022033875116e-04       1.251102828448e+03 
       3.238184913806e-04       1.337130207844e+03 
       3.466211217799e-04       1.427588773890e+03 
       3.707340502404e-04       1.522925852553e+03 
       3.962908933272e-04       1.623623379707e+03 
       4.234365325401e-04       1.730198180703e+03 
       4.523272766433e-04       1.843201030548e+03 
       4.831306596082e-04       1.963214082052e+03 
       5.160247487902e-04       2.090846194898e+03 
       5.511968248292e-04       2.226725672984e+03 
       5.888412927621e-04       2.371489942797e+03 
       6.291567001534e-04       2.525771808693e+03 
       6.723417805170e-04       2.690182128072e+03 
       7.185905153668e-04       2.865289079050e+03 
       7.680863179791e-04       3.051594643921e+03 
       8.209955803413e-04       3.249509470182e+03 
       8.774609746220e-04       3.459327822942e+03 
       9.375950330786e-04       3.681204795063e+03 
       1.001474609622e-03       3.915138160633e+03 
       1.069136818715e-03       4.160957124259e+03 
       1.140576934630e-03       4.418319672475e+03 
       1.215748524234e-03       4.686719310267e+03 
       1.294565816190e-03       4.965500811192e+03 
       1.376908035372e-03       5.253883457808e+03 
       1.462625212331e-03       5.550989362297e+03 
       1.477104874446e-03       5.600866830049e+03 
       1.551544855280e-03       5.855874041331e+03 
       1.643478859298e-03       6.167556544267e+03 
       1.738230108391e-03       6.485046998308e+03 
       1.835598366216e-03       6.807370207025e+03 
       1.935385211767e-03       7.133584668488e+03 
       2.037397924810e-03       7.462780487762e+03 
       2.141452342821e-03       7.794134362125e+03 
       2.247374789551e-03       8.126877679408e+03 
       2.355003217695e-03       8.460304942397e+03 
       2.464187721906e-03       8.793776914716e+03 
       2.574790572618e-03       9.126718659358e+03 
       2.686685904085e-03       9.458616363614e+03 
       2.799759167879e-03       9.789013414980e+03 
       2.913906440328e-03       1.011750603482e+04 
       3.029033651248e-03       1.044373870217e+04 
       3.145055783360e-03       1.076739958366e+04 
       3.261896076998e-03       1.108821616406e+04 
       3.379485263311e-03       1.140595119674e+04 
       3.497760840411e-03       1.172039901002e+04 
       3.616666400600e-03       1.203138212218e+04 
       3.736151012273e-03       1.233874816807e+04 
       3.856168657000e-03       1.264236714376e+04 
       3.976677720245e-03       1.294212895840e+04 
       4.097640532919e-03       1.323794125812e+04 
       4.219022960228e-03       1.352972747399e+04 
       4.340794033963e-03       1.381742504725e+04 
       4.462925624285e-03       1.410098381636e+04 
       4.585392147160e-03       1.438036456134e+04 
       4.708170303791e-03       1.465553774267e+04 
       4.831238848641e-03       1.492648258349e+04 
       4.954578382928e-03       1.519318541883e+04 
       5.078171170769e-03       1.545563911877e+04 
       5.202000975412e-03       1.571384229734e+04 
       5.326052913278e-03       1.596779673772e+04 
       5.450313323780e-03       1.621751191110e+04 
       5.574769653121e-03       1.646300046640e+04 
       5.699410350456e-03       1.670427800111e+04 
       5.824224775022e-03       1.694136323668e+04 
       5.949203112975e-03       1.717427767624e+04 
       6.074336302848e-03       1.740304529068e+04 
       6.199615968639e-03       1.762769222907e+04 
       6.325034359699e-03       1.784824654908e+04 
       6.450584296643e-03       1.806473796380e+04 
       6.576259122631e-03       1.827719760150e+04 
       6.702052659435e-03       1.848565778860e+04 
       6.827959167765e-03       1.869015184846e+04 
       6.953973311399e-03       1.889071392517e+04 
       7.080090124717e-03       1.908737883190e+04 
       7.206304983277e-03       1.928018192370e+04 
       7.332613577123e-03       1.946915899406e+04 
       7.459011886524e-03       1.965434619254e+04 
       7.585496159923e-03       1.983577995955e+04 
       7.712062893852e-03       2.001349697468e+04 
       7.838708814629e-03       2.018753411271e+04 
       7.965430861645e-03       2.035792840302e+04 
       8.092226172114e-03       2.052471699007e+04 
       8.219092067109e-03       2.068793709154e+04 
       8.346026038793e-03       2.084762595234e+04 
       8.473025738708e-03       2.100382079711e+04 
       8.600088967039e-03       2.115655877964e+04 
       8.727213662757e-03       2.130587693378e+04 
       8.854397894558e-03       2.145181212672e+04 
       8.981639852529e-03       2.159440101722e+04 
       9.108937840475e-03       2.173368002161e+04 
       9.236290268856e-03       2.186968528969e+04 
       9.363695648262e-03       2.200245269152e+04 
       9.491152583399e-03       2.213201781681e+04 
       9.618659767535e-03       2.225841598248e+04 
       9.746215977364e-03       2.238168224493e+04 
       9.873820068254e-03       2.250185141360e+04 
       1.000147096985e-02       2.261895806239e+04 
       1.012916768202e-02       2.273303653782e+04 
       1.025690927104e-02       2.284412096121e+04 
       1.038469486615e-02       2.295224522405e+04 
       1.051252365628e-02       2.305744297552e+04 
       1.064039488702e-02       2.315974760411e+04 
       1.076830785787e-02       2.325919221437e+04 
       1.089626191960e-02       2.335580960216e+04 
       1.102425647187e-02       2.344963223208e+04 
       1.115229096094e-02       2.354069221956e+04 
       1.128036487764e-02       2.362902132244e+04 
       1.140847775539e-02       2.371465094256e+04 
       1.153662916841e-02       2.379761213945e+04 
       1.166481873004e-02       2.387793565494e+04 
       1.179304609117e-02       2.395565194468e+04 
       1.192131093879e-02       2.403079121671e+04 
       1.204961299466e-02       2.410338346249e+04 
       1.217795201401e-02       2.417345822072e+04 
       1.230632778444e-02       2.424104568525e+04 
       1.243474012474e-02       2.430617527243e+04 
       1.256318888396e-02       2.436887631734e+04 
       1.269167394046e-02       2.442917807559e+04 
       1.282019520101e-02       2.448710970362e+04 
       1.294875260002e-02       2.454270020153e+04 
       1.307734609875e-02       2.459597820321e+04 
       1.320597568470e-02       2.464697157246e+04 
       1.333464137090e-02       2.469570711010e+04 
       1.346334319534e-02       2.474221096087e+04 
       1.359208122047e-02       2.478650944391e+04 
       1.372085553267e-02       2.482862933511e+04 
       1.384966624179e-02       2.486859755974e+04 
       1.397851348078e-02       2.490644087038e+04 
       1.410739740528e-02       2.494218572453e+04 
       1.423631819329e-02       2.497585828102e+04 
       1.436527604487e-02       2.500748442729e+04 
       1.449427118188e-02       2.503708980657e+04 
       1.462330384770e-02       2.506469983630e+04 
       1.475237430707e-02       2.509033971966e+04 
       1.477104874446e-02       2.509388714472e+04 
       1.488148284587e-02       2.511403445411e+04 
       1.501062977098e-02       2.513580883558e+04 
       1.513981541014e-02       2.515568746313e+04 
       1.526904011188e-02       2.517369474228e+04 
       1.539830424538e-02       2.518985488777e+04 
       1.552760820046e-02       2.520419192509e+04 
       1.565695238754e-02       2.521672969460e+04 
       1.578633723761e-02       2.522749185261e+04 
       1.591576320225e-02       2.523650187437e+04 
       1.604523075365e-02       2.524378305503e+04 
       1.617474038467e-02       2.524935851295e+04 
       1.630429260891e-02       2.525325119108e+04 
       1.643388796079e-02       2.525548385861e+04 
       1.656352699564e-02       2.525607911354e+04 
       1.669321028986e-02       2.525505938355e+04 
       1.682293844104e-02       2.525244692859e+04 
       1.695271206811e-02       2.524826384174e+04 
       1.708253181155e-02       2.524253205167e+04 
       1.721239833355e-02       2.523527332286e+04 
       1.734231231825e-02       2.522650925855e+04 
       1.747227447192e-02       2.521626129942e+04 
       1.760228552329e-02       2.520455072688e+04 
       1.773234622372e-02       2.519139866265e+04 
       1.786245734754e-02       2.517682607084e+04 
       1.799261969232e-02       2.516085375834e+04 
       1.812283407917e-02       2.514350237690e+04 
       1.825310135311e-02       2.512479242282e+04 
       1.838342238338e-02       2.510474424055e+04 
       1.851379806379e-02       2.508337802026e+04 
       1.864422931315e-02       2.506071380220e+04 
       1.877471707560e-02       2.503677147483e+04 
       1.890526232110e-02       2.501157077675e+04 
       1.903586604577e-02       2.498513129744e+04 
       1.916652927241e-02       2.495747247691e+04 
       1.929725305094e-02       2.492861360717e+04 
       1.942803845887e-02       2.489857383235e+04 
       1.955888660182e-02       2.486737214897e+04 
       1.968979861403e-02       2.483502740642e+04 
       1.982077565891e-02       2.480155830803e+04 
       1.995181892958e-02       2.476698340979e+04 
       2.008292964946e-02       2.473132112332e+04 
       2.021410907288e-02       2.469458971355e+04 
       2.034535848565e-02       2.465680729977e+04 
       2.047667920577e-02       2.461799185717e+04 
       2.060807258403e-02       2.457816121526e+04 
       2.073954000472e-02       2.453733305885e+04 
       2.087108288633e-02       2.449552492811e+04 
       2.100270268227e-02       2.445275421967e+04 
       2.113440088163e-02       2.440903818477e+04 
       2.126617900995e-02       2.436439393009e+04 
       2.139803863002e-02       2.431883841940e+04 
       2.152998134271e-02       2.427238847142e+04 
       2.166200878781e-02       2.422506076118e+04 
       2.179412264490e-02       2.417687181909e+04 
       2.192632463430e-02       2.412783803164e+04 
       2.205861651795e-02       2.407797564146e+04 
       2.219100010039e-02       2.402730074683e+04 
       2.232347722978e-02       2.397582930094e+04 
       2.245604979888e-02       2.392357711413e+04 
       2.258871974614e-02       2.387055985127e+04 
       2.272148905678e-02       2.381679303334e+04 
       2.285435976389e-02       2.376229202958e+04 
       2.298733394963e-02       2.370707208501e+04 
       2.312041374640e-02       2.365114827850e+04 
       2.325360133806e-02       2.359453555253e+04 
       2.338689896124e-02       2.353724870315e+04 
       2.352030890661e-02       2.347930238219e+04 
       2.365383352026e-02       2.342071109503e+04 
       2.378747520507e-02       2.336148920196e+04 
       2.392123642220e-02       2.330165091805e+04 
       2.405511969250e-02       2.324121031192e+04 
       2.418912759813e-02       2.318018130620e+04 
       2.432326278405e-02       2.311857767821e+04 
       2.445752795976e-02       2.305641305838e+04 
       2.459192590088e-02       2.299370093003e+04 
       2.472645945099e-02       2.293045463072e+04 
       2.486113152334e-02       2.286668735060e+04 
       2.499594510278e-02       2.280241213371e+04 
       2.513090324764e-02       2.273764187681e+04 
       2.526600909174e-02       2.267238932710e+04 
       2.540126584642e-02       2.260666708719e+04 
       2.553667680266e-02       2.254048761198e+04 
       2.567224533327e-02       2.247386320625e+04 
       2.580797489519e-02       2.240680602965e+04 
       2.594386903178e-02       2.233932809045e+04 
       2.607993137528e-02       2.227144125138e+04 
       2.621616564930e-02       2.220315722643e+04 
       2.635257567141e-02       2.213448757942e+04 
       2.648916535585e-02       2.206544372679e+04 
       2.662593871628e-02       2.199603693702e+04 
       2.676289986868e-02       2.192627832690e+04 
       2.690005303432e-02       2.185617886697e+04 
       2.703740254285e-02       2.178574937723e+04 
       2.717495283548e-02       2.171500052714e+04 
       2.731270846833e-02       2.164394283882e+04 
       2.745067411587e-02       2.157258668394e+04 
       2.758885457442e-02       2.150094228424e+04 
       2.772725476593e-02       2.142901971065e+04 
       2.786587974176e-02       2.135682888575e+04 
       2.800473468667e-02       2.128437958148e+04 
       2.814382492299e-02       2.121168141934e+04 
       2.828315591483e-02       2.113874386992e+04 
       2.842273327262e-02       2.106557625410e+04 
       2.856256275768e-02       2.099218774257e+04 
       2.870265028704e-02       2.091858735360e+04 
       2.884300193845e-02       2.084478395640e+04 
       2.898362395558e-02       2.077078626824e+04 
       2.912452275341e-02       2.069660285484e+04 
       2.926570492386e-02       2.062224213226e+04 
       2.940717724165e-02       2.054771236343e+04 
       2.954894667037e-02       2.047302166127e+04 
       2.969102036885e-02       2.039817798572e+04 
       2.983340569778e-02       2.032318914483e+04 
       2.997611022654e-02       2.024806279598e+04 
       3.011914174046e-02       2.017280644367e+04 
       3.026250824825e-02       2.009742743962e+04 
       3.040621798982e-02       2.002193298255e+04 
       3.055027944446e-02       1.994633011960e+04 
       3.069470133933e-02       1.987062574482e+04 
       3.083949265834e-02       1.979482659719e+04 
       3.098466265144e-02       1.971893926431e+04 
       3.113022084434e-02       1.964297017921e+04 
       3.127617704863e-02       1.956692561915e+04 
       3.142254137241e-02       1.949081170902e+04 
       3.156932423138e-02       1.941463441810e+04 
       3.171653636048e-02       1.933839956160e+04 
       3.186418882604e-02       1.926211279576e+04 
       3.201229303856e-02       1.918577962319e+04 
       3.216086076605e-02       1.910940539140e+04 
       3.230990414808e-02       1.903299528699e+04 
       3.245943571044e-02       1.895655434181e+04 
       3.260946838062e-02       1.888008742806e+04 
       3.276001550400e-02       1.880359925933e+04 
       3.291109086086e-02       1.872709438970e+04 
       3.306270868431e-02       1.865057721232e+04 
       3.321488367910e-02       1.857405196039e+04 
       3.336763104140e-02       1.849752270349e+04 
       3.352096647967e-02       1.842099334812e+04 
       3.367490623663e-02       1.834446763784e+04 
       3.382946711236e-02       1.826794914920e+04 
       3.398466648871e-02       1.819144129681e+04 
       3.414052235506e-02       1.811494732298e+04 
       3.429705333545e-02       1.803847030246e+04 
       3.445427871731e-02       1.796201313873e+04 
       3.461221848176e-02       1.788557856526e+04 
       3.477089333569e-02       1.780916914030e+04 
       3.493032474568e-02       1.773278724789e+04 
       3.509053497393e-02       1.765643509218e+04 
       3.525154711633e-02       1.758011469933e+04 
       3.541338514280e-02       1.750382791552e+04 
       3.557607394010e-02       1.742757640016e+04 
       3.573963935727e-02       1.735136162615e+04 
       3.590410825394e-02       1.727518487675e+04 
       3.606950855159e-02       1.719904724464e+04 
       3.623586928824e-02       1.712294962682e+04 
       3.640322067653e-02       1.704689271774e+04 
       3.657159416568e-02       1.697087701196e+04 
       3.674102250757e-02       1.689490279924e+04 
       3.691153982725e-02       1.681897015421e+04 
       3.708318169819e-02       1.674307893929e+04 
       3.725598522286e-02       1.666722879601e+04 
       3.742998911881e-02       1.659141913890e+04 
       3.760523381095e-02       1.651564915478e+04 
       3.778176153041e-02       1.643991779048e+04 
       3.795961642060e-02       1.636422375128e+04 
       3.813884465118e-02       1.628856549023e+04 
       3.831949454052e-02       1.621294120410e+04 
       3.850161668747e-02       1.613734882421e+04 
       3.868526411333e-02       1.606178600605e+04 
       3.887049241494e-02       1.598625011771e+04 
       3.905735992997e-02       1.591073823940e+04 
       3.924592791548e-02       1.583524714339e+04 
       3.943626074125e-02       1.575977328230e+04 
       3.962842609911e-02       1.568431278262e+04 
       3.982249523004e-02       1.560886142639e+04 
       4.001854317083e-02       1.553341463533e+04 
       4.021664902227e-02       1.545796745675e+04 
       4.041689624123e-02       1.538251454666e+04 
       4.061937295910e-02       1.530705014675e+04 
       4.082417232961e-02       1.523156806492e+04 
       4.103139290915e-02       1.515606165570e+04 
       4.124113907336e-02       1.508052379178e+04 
       4.145352147414e-02       1.500494683431e+04 
       4.166865754180e-02       1.492932260729e+04 
       4.188667203776e-02       1.485364236458e+04 
       4.210769766399e-02       1.477789674979e+04 
       4.233187573612e-02       1.470207575968e+04 
       4.255935692836e-02       1.462616869676e+04 
       4.279030209943e-02       1.455016412239e+04 
       4.302488321015e-02       1.447404980717e+04 
       4.326328434500e-02       1.439781266039e+04 
       4.350570285189e-02       1.432143866923e+04 
       4.375235061654e-02       1.424491282617e+04 
       4.400345549084e-02       1.416821903771e+04 
       4.425926289757e-02       1.409134003653e+04 
       4.452003763766e-02       1.401425727251e+04 
       4.478606593108e-02       1.393695078785e+04 
       4.505765772747e-02       1.385939908837e+04 
       4.533514932986e-02       1.378157898386e+04 
       4.561890638226e-02       1.370346540320e+04 
       4.590932728219e-02       1.362503120173e+04 
       4.620684709078e-02       1.354624691609e+04 
       4.651194202787e-02       1.346708049082e+04 
       4.682513465709e-02       1.338749696185e+04 
       4.714699988856e-02       1.330745807684e+04 
       4.747817195353e-02       1.322692186030e+04 
       4.781935253986e-02       1.314584208312e+04 
       4.817132031950e-02       1.306416764272e+04 
       4.853494215240e-02       1.298184181277e+04 
       4.891118631876e-02       1.289880133283e+04 
       4.930113821600e-02       1.281497530320e+04 
       4.970601906486e-02       1.273028382724e+04 
       5.012720830573e-02       1.264463632557e+04 
       5.056627054074e-02       1.255792942385e+04 
       5.102498809962e-02       1.247004430201e+04 
       5.150540059028e-02       1.238084329902e+04 
       5.200985315437e-02       1.229016554636e+04 
       5.254105559965e-02       1.219782128999e+04 
       5.310215514066e-02       1.210358440733e+04 
       5.369682615422e-02       1.200718246310e+04 
       5.432938113154e-02       1.190828331518e+04 
       5.500490781574e-02       1.180647690677e+04 
       5.572943817031e-02       1.170125022434e+04 
       5.651015491374e-02       1.159195259039e+04 
       5.735564000316e-02       1.147774718758e+04 
       5.827616491404e-02       1.135754318887e+04 
       5.928401156250e-02       1.122990106944e+04 
