# dimensionless total [l(l+1)/2pi] C_l's
# for l=2 to 3000, i.e. number of multipoles equal to 2999
#
# -> if you prefer output in CAMB/HealPix/LensPix units/order, set 'format' to 'camb' in input file
# -> if you don't want to see such a header, set 'headers' to 'no' in input file
# -> for CMB lensing (phi), these are C_l^phi-phi for the lensing potential.
#    Remember the conversion factors:
#    C_l^dd (deflection) = l(l+1) C_l^phi-phi
#    C_l^gg (shear/convergence) = 1/4 (l(l+1))^2 C_l^phi-phi
#
# 1:l     2:TT                     3:EE                     4:TE                     5:BB                     6:phiphi                 7:TPhi                   8:Ephi               
    2       1.494889086485e-10       7.298053053089e-15       4.815727282090e-13       0.000000000000e+00       8.789619204253e-09       4.856073610660e-10      -2.511996123185e-12 
    3       1.409120166867e-10       1.236143256472e-14       6.062489063795e-13       0.000000000000e+00       5.424895999007e-09       3.461436789553e-10      -2.209079306838e-12 
    4       1.324524547414e-10       1.443308133245e-14       6.271217765470e-13       0.000000000000e+00       3.770891340167e-09       2.634315568588e-10      -1.762189806238e-12 
    5       1.257477595425e-10       1.334753562865e-14       5.872855216232e-13       0.000000000000e+00       2.812625023346e-09       2.090127803622e-10      -1.308026864771e-12 
    6       1.208066495352e-10       1.029893434749e-14       5.167922344231e-13       0.000000000000e+00       2.196461412728e-09       1.706799927459e-10      -8.937933548579e-13 
    7       1.173342217096e-10       6.825483320426e-15       4.360328007977e-13       0.000000000000e+00       1.771985885253e-09       1.423898608791e-10      -5.437018653864e-13 
    8       1.150106462237e-10       4.032937692027e-15       3.572780365491e-13       0.000000000000e+00       1.464577402456e-09       1.207729470363e-10      -2.685129312574e-13 
    9       1.135912206741e-10       2.331126327899e-15       2.877771224617e-13       0.000000000000e+00       1.233530951826e-09       1.038060326480e-10      -6.986455882689e-14 
   10       1.128620764669e-10       1.568423732802e-15       2.315878491131e-13       0.000000000000e+00       1.054600981309e-09       9.022976344468e-11       5.755266177396e-14 
   11       1.126825169536e-10       1.343368659556e-15       1.904162264864e-13       0.000000000000e+00       8.886909405669e-10       7.948605760686e-11       1.233217346205e-13 
   12       1.129447552746e-10       1.285992132879e-15       1.639713378739e-13       0.000000000000e+00       7.765296068902e-10       7.025868784745e-11       1.420867305900e-13 
   13       1.135288596936e-10       1.198524321480e-15       1.504780369143e-13       0.000000000000e+00       6.844584416088e-10       6.271870680665e-11       1.276358245800e-13 
   14       1.143363421176e-10       1.052905274486e-15       1.473427583153e-13       0.000000000000e+00       6.078529434081e-10       5.618300196118e-11       9.271501926685e-14 
   15       1.153736502564e-10       9.089444998247e-16       1.516100551782e-13       0.000000000000e+00       5.433716486112e-10       5.072514758814e-11       4.956041081010e-14 
   16       1.166012979602e-10       8.279039994855e-16       1.602653123537e-13       0.000000000000e+00       4.885476223229e-10       4.610101900334e-11       7.259279396966e-15 
   17       1.179367650337e-10       8.272028137285e-16       1.707406707953e-13       0.000000000000e+00       4.415175329146e-10       4.210942006934e-11      -2.785868501018e-14 
   18       1.193839026147e-10       8.795829356884e-16       1.812039036500e-13       0.000000000000e+00       4.006971525958e-10       3.856412021240e-11      -5.225869249318e-14 
   19       1.209505418450e-10       9.523488596462e-16       1.907101223128e-13       0.000000000000e+00       3.654395030722e-10       3.543533103996e-11      -6.505125489532e-14 
   20       1.225808743426e-10       1.011919788713e-15       1.985304892302e-13       0.000000000000e+00       3.343854534782e-10       3.266988592077e-11      -6.704772061276e-14 
   21       1.242869633765e-10       1.061290018342e-15       2.047072493916e-13       0.000000000000e+00       3.070476036901e-10       3.022326716889e-11      -6.037803403015e-14 
   22       1.260686354976e-10       1.118678972414e-15       2.096476545733e-13       0.000000000000e+00       2.827724636142e-10       2.801380298302e-11      -4.838690064944e-14 
   23       1.279149163148e-10       1.203406708625e-15       2.138431797135e-13       0.000000000000e+00       2.612265172921e-10       2.601066973142e-11      -3.402886235058e-14 
   24       1.297934931238e-10       1.333938879358e-15       2.178776867593e-13       0.000000000000e+00       2.419118592345e-10       2.418086477363e-11      -2.041475087417e-14 
   25       1.317214786655e-10       1.510664207558e-15       2.222115193084e-13       0.000000000000e+00       2.246016178604e-10       2.253463769037e-11      -9.390956830676e-15 
   26       1.337115351849e-10       1.726591157572e-15       2.272305815670e-13       0.000000000000e+00       2.089828419223e-10       2.107522931219e-11      -2.294690433925e-15 
   27       1.357446220545e-10       1.975352991566e-15       2.329705459047e-13       0.000000000000e+00       1.948682799697e-10       1.976934746149e-11       6.847295583021e-16 
   28       1.377847789458e-10       2.250590362091e-15       2.392843454552e-13       0.000000000000e+00       1.820146418392e-10       1.856538607172e-11      -6.102678501790e-17 
   29       1.398417521088e-10       2.551789380848e-15       2.458722571492e-13       0.000000000000e+00       1.703563682566e-10       1.745853705259e-11      -3.731460302893e-15 
   30       1.419299235417e-10       2.880128717482e-15       2.522912905861e-13       0.000000000000e+00       1.597683717820e-10       1.644976836895e-11      -9.109474468637e-15 
   31       1.440532980945e-10       3.236167650318e-15       2.580172330058e-13       0.000000000000e+00       1.500347942906e-10       1.553075091340e-11      -1.476625591084e-14 
   32       1.462148011658e-10       3.617788218389e-15       2.626630503190e-13       0.000000000000e+00       1.411054465329e-10       1.469230510667e-11      -1.983397967501e-14 
   33       1.484077344535e-10       4.021381891715e-15       2.658311288929e-13       0.000000000000e+00       1.329172560443e-10       1.391720147242e-11      -2.349562299613e-14 
   34       1.506192101132e-10       4.443839749617e-15       2.671402468151e-13       0.000000000000e+00       1.253557207902e-10       1.318428405683e-11      -2.500106858900e-14 
   35       1.528557931152e-10       4.887870835583e-15       2.665326614357e-13       0.000000000000e+00       1.183821984592e-10       1.249409140435e-11      -2.445241126317e-14 
   36       1.551251727306e-10       5.358613679316e-15       2.640770668283e-13       0.000000000000e+00       1.119408037817e-10       1.185133236292e-11      -2.230415847109e-14 
   37       1.574296593041e-10       5.861376534412e-15       2.598834465442e-13       0.000000000000e+00       1.059477720562e-10       1.125783561693e-11      -1.911468677629e-14 
   38       1.597697388697e-10       6.398419024649e-15       2.540756338968e-13       0.000000000000e+00       1.003876556048e-10       1.071262076414e-11      -1.536214341716e-14 
   39       1.621404615481e-10       6.971151956689e-15       2.468152166433e-13       0.000000000000e+00       9.524284398219e-11       1.021130503300e-11      -1.158280180031e-14 
   40       1.645296020594e-10       7.580997288447e-15       2.383127448429e-13       0.000000000000e+00       9.046430112247e-11       9.745674287754e-12      -8.429678197312e-15 
   41       1.669232834265e-10       8.229139222883e-15       2.287673510254e-13       0.000000000000e+00       8.598865713948e-11       9.306298520833e-12      -6.508035424781e-15 
   42       1.693267165159e-10       8.915683606282e-15       2.181547680692e-13       0.000000000000e+00       8.180276571504e-11       8.892171970299e-12      -5.800117464811e-15 
   43       1.717490449724e-10       9.640222387742e-15       2.063753472683e-13       0.000000000000e+00       7.789554801463e-11       8.503672312776e-12      -6.065310904905e-15 
   44       1.741973566096e-10       1.040203926621e-14       1.933101426498e-13       0.000000000000e+00       7.423862039962e-11       8.139779687324e-12      -6.991210271759e-15 
   45       1.766763420881e-10       1.120037937126e-14       1.788279346384e-13       0.000000000000e+00       7.079643935326e-11       7.798607080947e-12      -8.238141697070e-15 
   46       1.791877610361e-10       1.203539803042e-14       1.628120355380e-13       0.000000000000e+00       6.756359969894e-11       7.479459392649e-12      -9.599446588377e-15 
   47       1.817303747167e-10       1.290746418601e-14       1.451391658946e-13       0.000000000000e+00       6.453634344317e-11       7.181188681187e-12      -1.088129181765e-14 
   48       1.842997564310e-10       1.381689499580e-14       1.256708912569e-13       0.000000000000e+00       6.170130951123e-11       6.901520042180e-12      -1.185598134047e-14 
   49       1.868880272049e-10       1.476395393483e-14       1.042527347378e-13       0.000000000000e+00       5.903481958386e-11       6.636970647608e-12      -1.226018535613e-14 
   50       1.894870786211e-10       1.574885962418e-14       8.075607739372e-14       0.000000000000e+00       5.651001124747e-11       6.383863662923e-12      -1.187922405375e-14 
   51       1.920998858329e-10       1.677181954647e-14       5.521932634425e-14       0.000000000000e+00       5.412217691161e-11       6.141882280204e-12      -1.083099799782e-14 
   52       1.947318084573e-10       1.783300220095e-14       2.774353114979e-14       0.000000000000e+00       5.186906837915e-11       5.911340441940e-12      -9.356066430962e-15 
   53       1.973872739826e-10       1.893252581605e-14      -1.545955554042e-15       0.000000000000e+00       4.974331397563e-11       5.692143540597e-12      -7.740553361059e-15 
   54       2.000696775556e-10       2.007045695601e-14      -3.249835195121e-14       0.000000000000e+00       4.773207367134e-11       5.483758981770e-12      -6.318426348969e-15 
   55       2.027814171355e-10       2.124680927117e-14      -6.497361218581e-14       0.000000000000e+00       4.582095784003e-11       5.285457839194e-12      -5.393264761794e-15 
   56       2.055242387602e-10       2.246154257741e-14      -9.896402235641e-14       0.000000000000e+00       4.400771362163e-11       5.097177556549e-12      -4.975585711003e-15 
   57       2.082988015213e-10       2.371456110738e-14      -1.345008391155e-13       0.000000000000e+00       4.229133446503e-11       4.918821998354e-12      -4.984255713825e-15 
   58       2.111044568392e-10       2.500571198929e-14      -1.716199646695e-13       0.000000000000e+00       4.066791950601e-11       4.749990670947e-12      -5.320444768365e-15 
   59       2.139391535247e-10       2.633478385908e-14      -2.103622735796e-13       0.000000000000e+00       3.913049480501e-11       4.589959847665e-12      -5.866768367214e-15 
   60       2.167993428398e-10       2.770150547263e-14      -2.507739395618e-13       0.000000000000e+00       3.766883458489e-11       4.437663694008e-12      -6.486429511065e-15 
   61       2.196814741436e-10       2.910552190611e-14      -2.928975007399e-13       0.000000000000e+00       3.627230132068e-11       4.291985750867e-12      -7.051418292667e-15 
   62       2.225870889078e-10       3.054632005380e-14      -3.367419725435e-13       0.000000000000e+00       3.493951536349e-11       4.152752539250e-12      -7.536448279268e-15 
   63       2.255187068408e-10       3.202328386873e-14      -3.823065757120e-13       0.000000000000e+00       3.367054842836e-11       4.019930502065e-12      -7.944678604965e-15 
   64       2.284782926098e-10       3.353571324156e-14      -4.295894381601e-13       0.000000000000e+00       3.246401493414e-11       3.893326477645e-12      -8.280579704416e-15 
   65       2.314672113697e-10       3.508282190177e-14      -4.785876279159e-13       0.000000000000e+00       3.131698902713e-11       3.772578672346e-12      -8.549997301180e-15 
   66       2.344861842927e-10       3.666373531870e-14      -5.292971860596e-13       0.000000000000e+00       3.022492160469e-11       3.657147633149e-12      -8.760216396067e-15 
   67       2.375352440977e-10       3.827748860266e-14      -5.817131596623e-13       0.000000000000e+00       2.918155733892e-11       3.546307220250e-12      -8.920025255481e-15 
   68       2.406141945212e-10       3.992311468836e-14      -6.358276474910e-13       0.000000000000e+00       2.818060551316e-11       3.439345743839e-12      -9.038920374457e-15 
   69       2.437241962490e-10       4.159993432565e-14      -6.916234036612e-13       0.000000000000e+00       2.722133114595e-11       3.336236879596e-12      -9.124391265484e-15 
   70       2.468664239234e-10       4.330732134796e-14      -7.490789911335e-13       0.000000000000e+00       2.630395291898e-11       3.237089105738e-12      -9.184197919983e-15 
   71       2.500415596180e-10       4.504461779539e-14      -8.081706367063e-13       0.000000000000e+00       2.542795216516e-11       3.141943980335e-12      -9.227222419607e-15 
   72       2.532497612559e-10       4.681113412486e-14      -8.688722131300e-13       0.000000000000e+00       2.459203474680e-11       3.050772488952e-12      -9.263510954625e-15 
   73       2.564906310268e-10       4.860614942023e-14      -9.311552212213e-13       0.000000000000e+00       2.379409293383e-11       2.963471392289e-12      -9.304315842313e-15 
   74       2.597631838054e-10       5.042891160238e-14      -9.949887719775e-13       0.000000000000e+00       2.303116728197e-11       2.879859573822e-12      -9.362137545340e-15 
   75       2.630658155688e-10       5.227863763934e-14      -1.060339568690e-12       0.000000000000e+00       2.229940851095e-11       2.799674387449e-12      -9.450766690157e-15 
   76       2.663969538026e-10       5.415437158642e-14      -1.127170487967e-12       0.000000000000e+00       2.159503310995e-11       2.722640948861e-12      -9.581330008534e-15 
   77       2.697572154586e-10       5.605452835581e-14      -1.195436063597e-12       0.000000000000e+00       2.091747560339e-11       2.648702670980e-12      -9.749502846060e-15 
   78       2.731475869605e-10       5.797726674637e-14      -1.265086142824e-12       0.000000000000e+00       2.026674452705e-11       2.577826327491e-12      -9.946030297987e-15 
   79       2.765687598140e-10       5.992062157155e-14      -1.336067168522e-12       0.000000000000e+00       1.964246223877e-11       2.509930716868e-12      -1.016047713898e-14 
   80       2.800211130086e-10       6.188250095424e-14      -1.408322132574e-12       0.000000000000e+00       1.904384717383e-11       2.444884505790e-12      -1.038118789872e-14 
   81       2.835046954202e-10       6.386068362152e-14      -1.481790529258e-12       0.000000000000e+00       1.846969610031e-11       2.382504072548e-12      -1.059524693747e-14 
   82       2.870192082142e-10       6.585281619953e-14      -1.556408308631e-12       0.000000000000e+00       1.791836637448e-11       2.322551350459e-12      -1.078843852174e-14 
   83       2.905639872472e-10       6.785641050821e-14      -1.632107829912e-12       0.000000000000e+00       1.738775819617e-11       2.264731671280e-12      -1.094520689979e-14 
   84       2.941383661631e-10       6.986908686596e-14      -1.708824912143e-12       0.000000000000e+00       1.687582497850e-11       2.208764398682e-12      -1.105187965046e-14 
   85       2.977428733879e-10       7.188935627285e-14      -1.786521431267e-12       0.000000000000e+00       1.638224053942e-11       2.154613006653e-12      -1.110703915404e-14 
   86       3.013782022295e-10       7.391596353988e-14      -1.865166401113e-12       0.000000000000e+00       1.590697704636e-11       2.102289366563e-12      -1.111280528634e-14 
   87       3.050448367937e-10       7.594765421659e-14      -1.944729280791e-12       0.000000000000e+00       1.544979273768e-11       2.051783428902e-12      -1.107173971777e-14 
   88       3.087430407854e-10       7.798317602049e-14      -2.025180047353e-12       0.000000000000e+00       1.501022305387e-11       2.003062290048e-12      -1.098686083386e-14 
   89       3.124728463085e-10       8.002128026650e-14      -2.106489268462e-12       0.000000000000e+00       1.458757176886e-11       1.956069259047e-12      -1.086165865578e-14 
   90       3.162340426674e-10       8.206072329637e-14      -2.188628175056e-12       0.000000000000e+00       1.418090212121e-11       1.910722924382e-12      -1.070010976086e-14 
   91       3.200261651670e-10       8.410026790808e-14      -2.271568734012e-12       0.000000000000e+00       1.378902794539e-11       1.866916220751e-12      -1.050669220313e-14 
   92       3.238484839140e-10       8.613868478528e-14      -2.355283720817e-12       0.000000000000e+00       1.341050480301e-11       1.824515495839e-12      -1.028640043382e-14 
   93       3.277002633883e-10       8.817464288541e-14      -2.439739496438e-12       0.000000000000e+00       1.304397271739e-11       1.783393504883e-12      -1.004429157994e-14 
   94       3.315816101404e-10       9.020635864122e-14      -2.524872937434e-12       0.000000000000e+00       1.268926260560e-11       1.743536097857e-12      -9.784013812396e-15 
   95       3.354927324752e-10       9.223189639650e-14      -2.610611154338e-12       0.000000000000e+00       1.234644063070e-11       1.704949927269e-12      -9.509083200997e-15 
   96       3.394336736577e-10       9.424927465279e-14      -2.696878451178e-12       0.000000000000e+00       1.201546743755e-11       1.667629488836e-12      -9.223341008986e-15 
   97       3.434043044314e-10       9.625646597461e-14      -2.783596297992e-12       0.000000000000e+00       1.169619411044e-11       1.631556653985e-12      -8.930962180579e-15 
   98       3.474043155357e-10       9.825139689457e-14      -2.870683303345e-12       0.000000000000e+00       1.138835813072e-11       1.596700202342e-12      -8.636463828522e-15 
   99       3.514332102232e-10       1.002319478186e-13      -2.958055186848e-12       0.000000000000e+00       1.109157933446e-11       1.563015354235e-12      -8.344713721639e-15 
  100       3.554902967771e-10       1.021959529312e-13      -3.045624751675e-12       0.000000000000e+00       1.080535587011e-11       1.530443303180e-12      -8.060938772385e-15 
  101       3.595746810295e-10       1.041412001003e-13      -3.133301857080e-12       0.000000000000e+00       1.052906015614e-11       1.498910748386e-12      -7.790733524399e-15 
  102       3.636852588779e-10       1.060654307829e-13      -3.220993390916e-12       0.000000000000e+00       1.026193483868e-11       1.468329427243e-12      -7.540068640053e-15 
  103       3.678207088035e-10       1.079663399299e-13      -3.308603242150e-12       0.000000000000e+00       1.000308874920e-11       1.438595647821e-12      -7.315299388006e-15 
  104       3.719797747083e-10       1.098416861348e-13      -3.396038532511e-12       0.000000000000e+00       9.751698934424e-12       1.409614293152e-12      -7.121701751905e-15 
  105       3.761621740564e-10       1.116896392288e-13      -3.483229329325e-12       0.000000000000e+00       9.507656534346e-12       1.381375533985e-12      -6.958837261575e-15 
  106       3.803677990306e-10       1.135084796827e-13      -3.570111556761e-12       0.000000000000e+00       9.271001023013e-12       1.353887655485e-12      -6.824574926425e-15 
  107       3.845964329279e-10       1.152964936594e-13      -3.656621015291e-12       0.000000000000e+00       9.041720171020e-12       1.327153314636e-12      -6.716500100907e-15 
