# Matter power spectrum P(k) at redshift z=0
# for k=9.61529e-06 to 1.69337 h/Mpc,
# number of wavenumbers equal to 561
#    1:k (h/Mpc)              2:P (Mpc/h)^3        
       9.615289314261e-06       7.316744314373e+01 
       2.210537103767e-05       1.634272952290e+02 
       3.463545670174e-05       2.517123275357e+02 
       4.723723661641e-05       3.392897783021e+02 
       5.994288339849e-05       4.267296839465e+02 
       7.278532175973e-05       5.141239647847e+02 
       8.579850629184e-05       6.023799783392e+02 
       9.901771074347e-05       6.911948500950e+02 
       1.124798323115e-04       7.815792379048e+02 
       1.262237144997e-04       8.733474019373e+02 
       1.402904921137e-04       9.660752456382e+02 
       1.547239619328e-04       1.061321400192e+03 
       1.695709824977e-04       1.158907339788e+03 
       1.848819062168e-04       1.259444344416e+03 
       2.007110465726e-04       1.361934010104e+03 
       2.171171825029e-04       1.469142631758e+03 
       2.341641009326e-04       1.578588920302e+03 
       2.519211767889e-04       1.693216778979e+03 
       2.704639874687e-04       1.812184427034e+03 
       2.898749554048e-04       1.936399625365e+03 
       3.102440078427e-04       2.066493715977e+03 
       3.316692368903e-04       2.202252576851e+03 
       3.542575350423e-04       2.345451710229e+03 
       3.781251714516e-04       2.495708665211e+03 
       4.033982620909e-04       2.654163054575e+03 
       4.302130727470e-04       2.821887284652e+03 
       4.587160780692e-04       2.999205547372e+03 
       4.890636839084e-04       3.187039294055e+03 
       5.214215060946e-04       3.385984061348e+03 
       5.559630900001e-04       3.597687369094e+03 
       5.928679563500e-04       3.822413676801e+03 
       6.323188754568e-04       4.061061692350e+03 
       6.744983102630e-04       4.314858586011e+03 
       7.195840328338e-04       4.584196511300e+03 
       7.677440101452e-04       4.869927533752e+03 
       8.191307676943e-04       5.172175645876e+03 
       8.738755597338e-04       5.491688859684e+03 
       9.320827804055e-04       5.828866165130e+03 
       9.938251131788e-04       6.182883309405e+03 
       1.059139911258e-03       6.554207389090e+03 
       1.128027214780e-03       6.940620988212e+03 
       1.200449646757e-03       6.158055547869e+03 
       1.276334215503e-03       7.760064355041e+03 
       1.355575828913e-03       8.190642425722e+03 
       1.438042141069e-03       8.632902531339e+03 
       1.523579238437e-03       8.699325781378e+03 
       1.612017645391e-03       9.546389651679e+03 
       1.703178178693e-03       1.001478500496e+04 
       1.796877283915e-03       1.049049457105e+04 
       1.892931613903e-03       1.097008051720e+04 
       1.991161733589e-03       1.145246757179e+04 
       2.091394938735e-03       1.193723213061e+04 
       2.193467250325e-03       1.242267213172e+04 
       2.297224690931e-03       1.092000545272e+04 
       2.402523969079e-03       1.306773175333e+04 
       2.509232699114e-03       1.387028437816e+04 
       2.617229273935e-03       1.435275844168e+04 
       2.726402491753e-03       1.458890231638e+04 
       2.836651019745e-03       1.434911667139e+04 
       2.947882759647e-03       1.556586362464e+04 
       3.060014164447e-03       1.568009627436e+04 
       3.172969541923e-03       1.400629143699e+04 
       3.286680369973e-03       1.714150394236e+04 
       3.401084640309e-03       1.480425427901e+04 
       3.516126240717e-03       1.547233673813e+04 
       3.631754381479e-03       1.612789824242e+04 
       3.747923068219e-03       1.676608593156e+04 
       3.864590621216e-03       1.738396680370e+04 
       3.981719239663e-03       1.798001331134e+04 
       4.099274608481e-03       1.855373422325e+04 
       4.217225544741e-03       1.910530250646e+04 
       4.335543680499e-03       1.963537651350e+04 
       4.454203178823e-03       2.014484527409e+04 
       4.573180479861e-03       2.063474569661e+04 
       4.692454073937e-03       2.110615779963e+04 
       4.812004298888e-03       2.156016866930e+04 
       4.931813159075e-03       2.199787288789e+04 
       5.051864163716e-03       1.934996007471e+04 
       5.172142182432e-03       1.990287016097e+04 
       5.292633316093e-03       2.045740243042e+04 
       5.413324781286e-03       2.099859184550e+04 
       5.534204806861e-03       2.152522485421e+04 
       5.655262541234e-03       2.203613313888e+04 
       5.776487969230e-03       2.252985686047e+04 
       5.897871837424e-03       2.300555558403e+04 
       6.019405587028e-03       2.346531643518e+04 
       6.141081293504e-03       2.390686685907e+04 
       6.262891612167e-03       2.433267778672e+04 
       6.384829729116e-03       2.474165508711e+04 
       6.506889316943e-03       2.513462966684e+04 
       6.629064494684e-03       2.551125170349e+04 
       6.751349791584e-03       2.587628610981e+04 
       6.873740114256e-03       2.622528219319e+04 
       6.996230716905e-03       2.656093189171e+04 
       7.118817174270e-03       2.688441861844e+04 
       7.241495357045e-03       2.719512271035e+04 
       7.364261409486e-03       2.749442950348e+04 
       7.487111729025e-03       2.778239994116e+04 
       7.610042947668e-03       2.805972246302e+04 
       7.733051915003e-03       2.832608383314e+04 
       7.856135682678e-03       2.858431506205e+04 
       7.979291490192e-03       2.883220377546e+04 
       8.102516751884e-03       2.907123972619e+04 
       8.225809044996e-03       2.930148310318e+04 
       8.349166098731e-03       2.952341052882e+04 
       8.472585784187e-03       2.973766521313e+04 
       8.596066105117e-03       2.994346254017e+04 
       8.719605189412e-03       3.014234293644e+04 
       8.843201281268e-03       3.033429425218e+04 
       8.966852733957e-03       3.051870137216e+04 
       9.090558003165e-03       3.069636044821e+04 
       9.214315640832e-03       3.086786719518e+04 
       9.338124289474e-03       3.103308137770e+04 
       9.461982676918e-03       3.119153593531e+04 
       9.585889611438e-03       3.134476469325e+04 
       9.709843977255e-03       3.149145290674e+04 
       9.833844730358e-03       3.163286748599e+04 
       9.957890894641e-03       3.176894268864e+04 
       1.008198155831e-02       3.189960853507e+04 
       1.020611587054e-02       3.202428316457e+04 
       1.033029303843e-02       3.214475590045e+04 
       1.045451232406e-02       3.225985098858e+04 
       1.057877304187e-02       3.237038766966e+04 
       1.070307455617e-02       3.247569767389e+04 
       1.082741627883e-02       3.257655331394e+04 
       1.095179766712e-02       3.267368585648e+04 
       1.107621822172e-02       3.276434233209e+04 
       1.120067748487e-02       3.285187647376e+04 
       1.132517503863e-02       3.293455246620e+04 
       1.144971050327e-02       3.301366039340e+04 
       1.157428353576e-02       3.308834352781e+04 
       1.169889382839e-02       2.805870567287e+04 
       1.182354110749e-02       3.322581836020e+04 
       1.194822513215e-02       3.328910925034e+04 
       1.207294569319e-02       3.334781545269e+04 
       1.219770261205e-02       3.340307113024e+04 
       1.232249573981e-02       3.345411291605e+04 
       1.244732495636e-02       3.350219330498e+04 
       1.257219016950e-02       3.354696549511e+04 
       1.269709131417e-02       3.358812278996e+04 
       1.282202835177e-02       3.362520613170e+04 
       1.294700126945e-02       3.365907245262e+04 
       1.307201007953e-02       3.368961685575e+04 
       1.319705481892e-02       3.371750906398e+04 
       1.332213554861e-02       3.374179658238e+04 
       1.344725235316e-02       3.376085986704e+04 
       1.357240534034e-02       3.378007433974e+04 
       1.369759464063e-02       3.379520642033e+04 
       1.382282040695e-02       3.380768791799e+04 
       1.394808281429e-02       3.381634377418e+04 
       1.407338205941e-02       3.382235395509e+04 
       1.419871836060e-02       3.382559816767e+04 
       1.432409195745e-02       3.382579161366e+04 
       1.444950311062e-02       3.382361533778e+04 
       1.457495210171e-02       3.381846463784e+04 
       1.470043923306e-02       3.381075048849e+04 
       1.482596482767e-02       3.380042589207e+04 
       1.495152922908e-02       3.378748428452e+04 
       1.507713280129e-02       3.377186297046e+04 
       1.520277592873e-02       3.375383597070e+04 
       1.532845901621e-02       3.373377548457e+04 
       1.545418248891e-02       3.371113053227e+04 
       1.557994679241e-02       3.368583483794e+04 
       1.570575239272e-02       3.365842777536e+04 
       1.583159977629e-02       3.362887172091e+04 
       1.595748945016e-02       3.359613995154e+04 
       1.608342194195e-02       3.356214231052e+04 
       1.620939780006e-02       3.352582029676e+04 
       1.633541759374e-02       3.348700089699e+04 
       1.646148191323e-02       3.344628006399e+04 
       1.658759136998e-02       3.340353072313e+04 
       1.671374659675e-02       3.335874941423e+04 
       1.683994824785e-02       3.331252083359e+04 
       1.696619699935e-02       3.326336237720e+04 
       1.709249354930e-02       3.321261000654e+04 
       1.721883861795e-02       3.315990511011e+04 
       1.734523294806e-02       3.310561812395e+04 
       1.747167730515e-02       3.304979796606e+04 
       1.759817247779e-02       3.299135222855e+04 
       1.772471927792e-02       3.293165758445e+04 
       1.785131854117e-02       3.287008281930e+04 
       1.797797112721e-02       3.280689170726e+04 
       1.810467792012e-02       3.274206975091e+04 
       1.823143982873e-02       3.267565029226e+04 
       1.835825778705e-02       3.260761869398e+04 
       1.848513275467e-02       3.253790879352e+04 
       1.861206571719e-02       3.246672332946e+04 
       1.873905768664e-02       3.239398462378e+04 
       1.886610970199e-02       3.231988920680e+04 
       1.899322282959e-02       3.224435645184e+04 
       1.912039816369e-02       3.216706625106e+04 
       1.924763682695e-02       3.208894534994e+04 
       1.937493997098e-02       3.200932885675e+04 
       1.950230877688e-02       3.192821367528e+04 
       1.962974445584e-02       3.184583062985e+04 
       1.975724824973e-02       3.176220948649e+04 
       1.988482143169e-02       3.167729523613e+04 
       2.001246530679e-02       3.159115747626e+04 
       2.014018121270e-02       3.150411706973e+04 
       2.026797052031e-02       3.141551755031e+04 
       2.039583463451e-02       3.132595137729e+04 
       2.052377499485e-02       3.123499006741e+04 
       2.065179307634e-02       3.114346379399e+04 
       2.077989039015e-02       3.105063566703e+04 
       2.090806848450e-02       3.095681247679e+04 
       2.103632894540e-02       3.086196704072e+04 
       2.116467339754e-02       3.076591433965e+04 
       2.129310350515e-02       3.066927552409e+04 
       2.142162097291e-02       3.057159502023e+04 
       2.155022754687e-02       3.047286779251e+04 
       2.167892501544e-02       3.037332098818e+04 
       2.180771521032e-02       3.027300458583e+04 
       2.193660000758e-02       3.017174189838e+04 
       2.206558132869e-02       3.006971512708e+04 
       2.219466114160e-02       2.996684543523e+04 
       2.232384146187e-02       2.986335015459e+04 
       2.245312435381e-02       2.975900979186e+04 
       2.258251193171e-02       2.965404598721e+04 
       2.271200636102e-02       2.954811556256e+04 
       2.284160985965e-02       2.944169369971e+04 
       2.297132469927e-02       2.933464847779e+04 
       2.310115320666e-02       2.922685584918e+04 
       2.323109776512e-02       2.911848133590e+04 
       2.336116081588e-02       2.900952140316e+04 
       2.349134485958e-02       2.889991404116e+04 
       2.362165245785e-02       2.878985954811e+04 
       2.375208623485e-02       2.867932730354e+04 
       2.388264887890e-02       2.856815246988e+04 
       2.401334314420e-02       2.845648216116e+04 
       2.414417185255e-02       2.834424223270e+04 
       2.427513789514e-02       2.823178157781e+04 
       2.440624423443e-02       2.811881075819e+04 
       2.453749390605e-02       2.800529884351e+04 
       2.466889002082e-02       2.789148907229e+04 
       2.480043576674e-02       2.777732171260e+04 
       2.493213441117e-02       2.766271860264e+04 
       2.506398930300e-02       2.754770427273e+04 
       2.519600387491e-02       2.743235529510e+04 
       2.532818164572e-02       2.731688285045e+04 
       2.546052622284e-02       2.720086855599e+04 
       2.559304130475e-02       2.708482005111e+04 
       2.572573068358e-02       2.696832356588e+04 
       2.585859824788e-02       2.685164085868e+04 
       2.599164798532e-02       2.673476829988e+04 
       2.612488398563e-02       2.661765220779e+04 
       2.625831044356e-02       2.650022047836e+04 
       2.639193166198e-02       2.638267471987e+04 
       2.652575205512e-02       2.626492628169e+04 
       2.665977615185e-02       2.614715111754e+04 
       2.679400859916e-02       2.602909148570e+04 
       2.692845416573e-02       2.591088453621e+04 
       2.706311774566e-02       2.579261978975e+04 
       2.719800436227e-02       2.567420485092e+04 
       2.733311917217e-02       2.555569349540e+04 
       2.746846746934e-02       2.543719858769e+04 
       2.760405468950e-02       2.531854897413e+04 
       2.773988641455e-02       2.519992759783e+04 
       2.787596837724e-02       2.508114864338e+04 
       2.801230646601e-02       2.496244139185e+04 
       2.814890673002e-02       2.484380501303e+04 
       2.828577538434e-02       2.472491921228e+04 
       2.842291881546e-02       2.460621844734e+04 
       2.856034358692e-02       2.448742697914e+04 
       2.869805644519e-02       2.436874891427e+04 
       2.883606432582e-02       2.425013646439e+04 
       2.897437435987e-02       2.413145902275e+04 
       2.911299388052e-02       2.401293021751e+04 
       2.925193043007e-02       2.389451047575e+04 
       2.939119176712e-02       2.377610506054e+04 
       2.953078587420e-02       2.365779057194e+04 
       2.967072096562e-02       2.353965024887e+04 
       2.981100549569e-02       2.342143234842e+04 
       2.995164816735e-02       2.330352038183e+04 
       3.009265794112e-02       2.318572356730e+04 
       3.023404404450e-02       2.306803060024e+04 
       3.037581598179e-02       2.295048495701e+04 
       3.051798354436e-02       2.283307254569e+04 
       3.066055682134e-02       2.271574009159e+04 
       3.080354621093e-02       2.259881224370e+04 
       3.094696243214e-02       2.248182410932e+04 
       3.109081653710e-02       2.236526239588e+04 
       3.123511992404e-02       2.224866563509e+04 
       3.137988435079e-02       2.213230415649e+04 
       3.152512194906e-02       2.201619610203e+04 
       3.167084523928e-02       2.190033680651e+04 
       3.181706714637e-02       2.178463607364e+04 
       3.196380101613e-02       2.166915350276e+04 
       3.211106063257e-02       2.155396674054e+04 
       3.225886023610e-02       2.143890633882e+04 
       3.240721454267e-02       2.132407126063e+04 
       3.255613876393e-02       2.120972415193e+04 
       3.270564862846e-02       2.109538412632e+04 
       3.285576040410e-02       2.098141183725e+04 
       3.300649092156e-02       2.086764129681e+04 
       3.315785759929e-02       2.075412175812e+04 
       3.330987846970e-02       2.064092900107e+04 
       3.346257220695e-02       2.052800385470e+04 
       3.361595815618e-02       2.041532243131e+04 
       3.377005636454e-02       2.030299249052e+04 
       3.392488761398e-02       2.019088884332e+04 
       3.408047345591e-02       2.007905893912e+04 
       3.423683624800e-02       1.996757801195e+04 
       3.439399919315e-02       1.985628547060e+04 
       3.455198638084e-02       1.974533381116e+04 
       3.471082283103e-02       1.963467413750e+04 
       3.487053454076e-02       1.952432825903e+04 
       3.503114853372e-02       1.941426152075e+04 
       3.519269291302e-02       1.930455543094e+04 
       3.535519691727e-02       1.919505486545e+04 
       3.551869098041e-02       1.908596802586e+04 
       3.568320679550e-02       1.897703766131e+04 
       3.584877738278e-02       1.886857124351e+04 
       3.601543716230e-02       1.876031106049e+04 
       3.618322203171e-02       1.865239420752e+04 
       3.635216944929e-02       1.854473159024e+04 
       3.652231852305e-02       1.843752218673e+04 
       3.669371010606e-02       1.833047969358e+04 
       3.686638689885e-02       1.564473983430e+04 
       3.704039355929e-02       1.811737407436e+04 
       3.721577682071e-02       1.801127372489e+04 
       3.739258561904e-02       1.790555038255e+04 
       3.757087122972e-02       1.779999776440e+04 
       3.775068741528e-02       1.769477734734e+04 
       3.793209058474e-02       1.758988110551e+04 
       3.811513996575e-02       1.748524133508e+04 
       3.829989779096e-02       1.496721805381e+04 
       3.848642949974e-02       1.727691647708e+04 
       3.867480395712e-02       1.485735576298e+04 
       3.886509369137e-02       1.706973095419e+04 
       3.905737515248e-02       1.696657376154e+04 
       3.925172899346e-02       1.423880505323e+04 
       3.944824037715e-02       1.478246274929e+04 
       3.964699931107e-02       1.665865395016e+04 
       3.984810101375e-02       1.655656089085e+04 
       4.005164631575e-02       1.645463617659e+04 
       4.025774209955e-02       1.387883271674e+04 
       4.046650178295e-02       1.625167441684e+04 
       4.067804585082e-02       1.402920291987e+04 
       4.089250244152e-02       1.604964938842e+04 
       4.111000799434e-02       1.594898140323e+04 
       4.133070796597e-02       1.584846802052e+04 
       4.155475762468e-02       1.574821803117e+04 
       4.178232293246e-02       1.564814207660e+04 
       4.201358152692e-02       1.554829246315e+04 
       4.224872381653e-02       1.430537831880e+04 
       4.248795420502e-02       1.534904337932e+04 
       4.273149246332e-02       1.524972288082e+04 
       4.297957527054e-02       1.380166008151e+04 
       4.323245794900e-02       1.505137033323e+04 
       4.349041642302e-02       1.495242737735e+04 
       4.375374943607e-02       1.399480052393e+04 
       4.402278106749e-02       1.475481610849e+04 
       4.429786359752e-02       1.319729094394e+04 
       4.457938077870e-02       1.455746792025e+04 
       4.486775158322e-02       1.445893600885e+04 
       4.516343450923e-02       1.436025592594e+04 
       4.546693254671e-02       1.426171381029e+04 
       4.577879892408e-02       1.416309411118e+04 
       4.609964378285e-02       1.406443133124e+04 
       4.643014196014e-02       1.396568765843e+04 
       4.677104209901e-02       1.386689994057e+04 
       4.712317735748e-02       1.376787074696e+04 
       4.748747805051e-02       1.222680406813e+04 
       4.786498664024e-02       1.230422264749e+04 
       4.825687559149e-02       1.346972149880e+04 
       4.866446873961e-02       1.336963295602e+04 
       4.908926698309e-02       1.326928694141e+04 
       4.953297932419e-02       1.231133646490e+04 
       4.999756054950e-02       1.306696180702e+04 
       5.048525718288e-02       1.227032120980e+04 
       5.099866377284e-02       1.207867696236e+04 
       5.154079210864e-02       1.275807247825e+04 
       5.211515660448e-02       1.217420837930e+04 
       5.272587983629e-02       1.254644586503e+04 
       5.337782300223e-02       1.194024196915e+04 
       5.407674674363e-02       1.232754911984e+04 
       5.482950793419e-02       1.221413121342e+04 
       5.564429692917e-02       1.169795623355e+04 
       5.653091578143e-02       1.197526829354e+04 
       5.750108807605e-02       1.184713315093e+04 
       5.856876997727e-02       1.171048561025e+04 
