# dimensionless total lensed [l(l+1)/2pi] C_l's
# for l=2 to 2600, i.e. number of multipoles equal to 2599
#
# -> if you prefer output in CAMB/HealPix/LensPix units/order, set 'format' to 'camb' in input file
# -> if you don't want to see such a header, set 'headers' to 'no' in input file
# -> for CMB lensing (phi), these are C_l^phi-phi for the lensing potential.
#    Remember the conversion factors:
#    C_l^dd (deflection) = l(l+1) C_l^phi-phi
#    C_l^gg (shear/convergence) = 1/4 (l(l+1))^2 C_l^phi-phi
#
# 1:l     2:TT                     3:EE                     4:TE                     5:BB                     6:phiphi                 7:TPhi                   8:Ephi               
    2       1.448020496375e-10       4.689951119430e-15       3.799193429746e-13       2.583842032495e-19       8.636014702447e-09       4.760241933339e-10      -2.000592650542e-12 
    3       1.369606626127e-10       6.370786170515e-15       4.369135066342e-13       5.168279729631e-19       5.332415819604e-09       3.380733437134e-10      -1.567532820677e-12 
    4       1.294935089075e-10       5.863662332862e-15       4.169334184964e-13       8.615132347686e-19       3.709222148549e-09       2.563150896345e-10      -1.075382168017e-12 
    5       1.238465445030e-10       4.174863368952e-15       3.618302012666e-13       1.292521850973e-18       2.768917316642e-09       2.026523833995e-10      -6.436633925061e-13 
    6       1.199290705219e-10       2.464630001479e-15       2.963953933327e-13       1.809958022678e-18       2.163800143955e-09       1.649973964500e-10      -3.088633092674e-13 
    7       1.173595985678e-10       1.339774439757e-15       2.355371241258e-13       2.413949236499e-18       1.746504656596e-09       1.373410435115e-10      -7.896937705770e-14 
    8       1.158300678893e-10       8.147833359472e-16       1.864434574690e-13       3.104647120571e-18       1.444202428620e-09       1.163527086988e-10       5.471821131750e-14 
    9       1.150789323430e-10       6.301206692129e-16       1.515442548775e-13       3.882228083862e-18       1.216860581380e-09       1.000224859787e-10       1.105589487237e-13 
   10       1.148859140324e-10       5.490084135011e-16       1.303357676021e-13       4.746893612235e-18       1.040646072252e-09       8.704882038051e-11       1.115117231027e-13 
   11       1.151577234926e-10       4.724460351885e-16       1.205836069366e-13       5.698870101648e-18       8.771090948833e-10       7.686385486600e-11       8.101704409686e-14 
   12       1.157685297752e-10       4.033250959328e-16       1.192874609764e-13       6.738408123186e-18       7.666252882028e-10       6.800799324039e-11       3.873042028606e-14 
   13       1.166444300294e-10       3.672893502854e-16       1.234795524930e-13       7.865781035810e-18       6.759033941208e-10       6.079333565929e-11      -4.338427629793e-16 
   14       1.177101740272e-10       3.685732725583e-16       1.306988113582e-13       9.081282889803e-18       6.004012194816e-10       5.449421008505e-11      -2.847231737727e-14 
   15       1.189726136315e-10       3.926771256595e-16       1.392165771469e-13       1.038522559586e-17       5.368319274212e-10       4.920522352571e-11      -4.208087245372e-14 
   16       1.203790677076e-10       4.268145813034e-16       1.480107967548e-13       1.177793536998e-17       4.827701557174e-10       4.467234274818e-11      -4.275538717239e-14 
   17       1.219056040026e-10       4.707602575074e-16       1.565782654011e-13       1.325974850145e-17       4.363834227607e-10       4.072685655489e-11      -3.457390565727e-14 
   18       1.235167008305e-10       5.331912891815e-16       1.649560366619e-13       1.483100693090e-17       3.961130347660e-10       3.724266106794e-11      -2.271749992598e-14 
   19       1.252237359019e-10       6.189527267178e-16       1.734268413619e-13       1.649205093592e-17       3.613233141207e-10       3.418993778173e-11      -1.099237832057e-14 
   20       1.269996732359e-10       7.300918704099e-16       1.823182322477e-13       1.824321779770e-17       3.306756904754e-10       3.149592535091e-11      -2.957097526002e-15 
   21       1.288534545077e-10       8.647523327780e-16       1.917472302126e-13       2.008483071232e-17       3.036906945513e-10       2.911487128768e-11       4.204682468754e-16 
   22       1.307722258637e-10       1.019390988152e-15       2.016980906404e-13       2.201719793474e-17       2.797246964394e-10       2.697174758524e-11      -5.763053226420e-16 
   23       1.327516539965e-10       1.194202582502e-15       2.119663810057e-13       2.404060297507e-17       2.584495514940e-10       2.504246425087e-11      -4.656309274497e-15 
   24       1.347707928181e-10       1.390228856664e-15       2.222170009214e-13       2.615530364818e-17       2.393747583621e-10       2.329851883986e-11      -9.887917267875e-15 
   25       1.368433040559e-10       1.607193985416e-15       2.320859492277e-13       2.836152456208e-17       2.222768957509e-10       2.173684358595e-11      -1.469192047212e-14 
   26       1.389744846378e-10       1.844412766913e-15       2.411701802569e-13       3.065945563907e-17       2.068474137692e-10       2.034315660212e-11      -1.761433634684e-14 
   27       1.411492226084e-10       2.102588140720e-15       2.491868515886e-13       3.304924783934e-17       1.929018413264e-10       1.908464956077e-11      -1.831755854167e-14 
   28       1.433383344956e-10       2.383032190435e-15       2.559188803583e-13       3.553101245815e-17       1.802003533335e-10       1.791650766150e-11      -1.696406586177e-14 
   29       1.455521284946e-10       2.687734447795e-15       2.613684754895e-13       3.810482664906e-17       1.686785015987e-10       1.683740075933e-11      -1.419991679603e-14 
   30       1.478028705012e-10       3.019131021052e-15       2.656446252459e-13       4.077072422634e-17       1.582130015239e-10       1.585183273912e-11      -1.102567833989e-14 
   31       1.500918995820e-10       3.379634306373e-15       2.688832750245e-13       4.352869798745e-17       1.485909026744e-10       1.495540180392e-11      -8.515331535112e-15 
   32       1.524213878640e-10       3.770286348588e-15       2.711252991344e-13       4.637872528854e-17       1.397627921258e-10       1.413934223177e-11      -6.988218742625e-15 
   33       1.547841499752e-10       4.191586326062e-15       2.723959060498e-13       4.932074723462e-17       1.316664818914e-10       1.338582257399e-11      -6.532253510815e-15 
   34       1.571663907318e-10       4.643957675571e-15       2.727072245775e-13       5.235467120509e-17       1.241889606446e-10       1.267336428948e-11      -7.134907387842e-15 
   35       1.595733317112e-10       5.128224875135e-15       2.719544832626e-13       5.548041183042e-17       1.172921453438e-10       1.200343752133e-11      -8.404518035104e-15 
   36       1.620108160587e-10       5.645290552459e-15       2.699813895346e-13       5.869786138065e-17       1.109208977273e-10       1.138234775777e-11      -9.737077100814e-15 
   37       1.644795991150e-10       6.196016331692e-15       2.666267924513e-13       6.200689657414e-17       1.049925207232e-10       1.081331963965e-11      -1.053186278081e-14 
   38       1.669817684290e-10       6.781259057332e-15       2.617978010833e-13       6.540744394611e-17       9.949181899128e-11       1.029436420280e-11      -1.071540259858e-14 
   39       1.695152153496e-10       7.401840513764e-15       2.554194715330e-13       6.889943541776e-17       9.440144829000e-11       9.819157066985e-12      -1.038731587287e-14 
   40       1.720710613112e-10       8.058533590484e-15       2.474150169758e-13       7.248279101750e-17       8.967299584364e-11       9.377172055662e-12      -9.683304281635e-15 
   41       1.746383609335e-10       8.752045034985e-15       2.377240667272e-13       7.615743944566e-17       8.524387279659e-11       8.956907701744e-12      -8.765550794847e-15 
   42       1.772216583407e-10       9.482964779089e-15       2.263649705314e-13       7.992338737347e-17       8.110112207348e-11       8.557650599362e-12      -7.783989096380e-15 
   43       1.798280217678e-10       1.025179464116e-14       2.133925115002e-13       8.378067301611e-17       7.723381924836e-11       8.180966857489e-12      -6.906744978387e-15 
   44       1.824618725392e-10       1.105895675796e-14       1.988823286902e-13       8.772934925894e-17       7.361392357243e-11       7.827370416448e-12      -6.332913192660e-15 
   45       1.851253688817e-10       1.190484029698e-14       1.829033531658e-13       9.176949094338e-17       7.020631115671e-11       7.496479593852e-12      -6.234128489685e-15 
   46       1.878203994107e-10       1.278996818271e-14       1.654226866389e-13       9.590121555359e-17       6.700566338646e-11       7.187768856242e-12      -6.554413543630e-15 
   47       1.905466765596e-10       1.371487304248e-14       1.463741641532e-13       1.001246714345e-16       6.400828812729e-11       6.899878425782e-12      -7.153406054844e-15 
   48       1.933008520655e-10       1.468004935471e-14       1.256840214080e-13       1.044400345186e-16       6.120099257146e-11       6.630301823518e-12      -7.859599231932e-15 
   49       1.960762570456e-10       1.568595216548e-14       1.032703482485e-13       1.088475102526e-16       5.856037653096e-11       6.375304373884e-12      -8.468590450260e-15 
   50       1.988658582982e-10       1.673295004306e-14       7.905635367804e-14       1.133473169360e-16       5.605988761766e-11       6.130986227093e-12      -8.797307926714e-15 
   51       2.016726762471e-10       1.782117186491e-14       5.301567360101e-14       1.179396259360e-16       5.369488400149e-11       5.897000663034e-12      -8.868106392206e-15 
   52       2.045017455360e-10       1.895061622416e-14       2.513841667974e-14       1.226246085751e-16       5.146315306839e-11       5.673704208973e-12      -8.771614807295e-15 
   53       2.073570399614e-10       2.012119020125e-14      -4.581471318030e-15       1.274024543274e-16       4.935741077922e-11       5.461073354278e-12      -8.615987792326e-15 
   54       2.102413639001e-10       2.133270592698e-14      -3.614610407447e-14       1.322733718708e-16       4.736496022811e-11       5.258676914589e-12      -8.527788545518e-15 
   55       2.131565481954e-10       2.258495496279e-14      -6.955786748121e-14       1.372375502340e-16       4.547157001897e-11       5.065903864318e-12      -8.620532918717e-15 
   56       2.161043435287e-10       2.387796095341e-14      -1.048335204305e-13       1.422950285269e-16       4.367501986195e-11       4.882776423882e-12      -8.889148145271e-15 
   57       2.190855588080e-10       2.521178371843e-14      -1.419934157716e-13       1.474457956910e-16       4.197432193206e-11       4.709290554463e-12      -9.290841894762e-15 
   58       2.220996815482e-10       2.658644653764e-14      -1.810575543234e-13       1.526898270769e-16       4.036562269321e-11       4.545160889005e-12      -9.774775160464e-15 
   59       2.251447811617e-10       2.800193574592e-14      -2.220456495934e-13       1.580270839411e-16       3.884202586505e-11       4.389803049695e-12      -1.028168522254e-14 
   60       2.282174122475e-10       2.945820032811e-14      -2.649771924965e-13       1.634575129435e-16       3.739341538981e-11       4.242315965440e-12      -1.074350861120e-14 
   61       2.313140742772e-10       3.095505992775e-14      -3.098643492149e-13       1.689810252400e-16       3.600926697033e-11       4.101734412493e-12      -1.109843659141e-14 
   62       2.344361923073e-10       3.249190566134e-14      -3.566886455064e-13       1.745974294129e-16       3.468822063793e-11       3.967892879571e-12      -1.134088356484e-14 
   63       2.375860877152e-10       3.406793112409e-14      -4.054191399664e-13       1.803064825256e-16       3.343035248021e-11       3.840725111040e-12      -1.148211659706e-14 
   64       2.407654740657e-10       3.568221480449e-14      -4.560189696194e-13       1.861079080706e-16       3.223429509236e-11       3.720002066079e-12      -1.153592300707e-14 
   65       2.439754097844e-10       3.733371677326e-14      -5.084451872392e-13       1.920013948199e-16       3.109715536913e-11       3.605322810136e-12      -1.151872299268e-14 
   66       2.472162508301e-10       3.902127537217e-14      -5.626485986692e-13       1.979865956746e-16       3.001443229677e-11       3.496105406384e-12      -1.144968225595e-14 
   67       2.504876033686e-10       4.074360390302e-14      -6.185736001418e-13       2.040631265145e-16       2.897993474493e-11       3.391577807173e-12      -1.135082462860e-14 
   68       2.537889003909e-10       4.249941502702e-14      -6.761682887552e-13       2.102306242001e-16       2.798743620387e-11       3.290978952721e-12      -1.124242656303e-14 
   69       2.571213730351e-10       4.428783063501e-14      -7.354175364755e-13       2.164889367963e-16       2.703621210516e-11       3.194229744778e-12      -1.112786520505e-14 
   70       2.604863955215e-10       4.610804946111e-14      -7.963163563442e-13       2.228379700039e-16       2.612648198103e-11       3.101382291577e-12      -1.100588836068e-14 
   71       2.638848657422e-10       4.795922667638e-14      -8.588603205488e-13       2.292776317737e-16       2.525773468626e-11       3.012418064529e-12      -1.087505308368e-14 
   72       2.673171738923e-10       4.984047384405e-14      -9.230456604834e-13       2.358078326697e-16       2.442869061330e-11       2.927244165825e-12      -1.073371763264e-14 
   73       2.707831710999e-10       5.175085887456e-14      -9.888693668094e-13       2.424284862309e-16       2.363726390735e-11       2.845689596032e-12      -1.058003342795e-14 
   74       2.742821380575e-10       5.368940598081e-14      -1.056329289516e-12       2.491395093345e-16       2.288052468145e-11       2.767501521695e-12      -1.041193700883e-14 
   75       2.778127536524e-10       5.565509563322e-14      -1.125424237982e-12       2.559408225585e-16       2.215466123154e-11       2.692341542936e-12      -1.022714199039e-14 
   76       2.813737170617e-10       5.764681006461e-14      -1.196145920947e-12       2.628324210126e-16       2.145592685057e-11       2.619873087717e-12      -1.002437458149e-14 
   77       2.849658143463e-10       5.966315841089e-14      -1.268452848410e-12       2.698146009427e-16       2.078376312457e-11       2.550050243994e-12      -9.807358026719e-15 
   78       2.885901734695e-10       6.170261945432e-14      -1.342291830296e-12       2.768877752995e-16       2.013818018323e-11       2.482875061185e-12      -9.581543509870e-15 
   79       2.922476265863e-10       6.376359210242e-14      -1.417605648163e-12       2.840524087146e-16       1.951880531751e-11       2.418309262444e-12      -9.352948225887e-15 
   80       2.959386920742e-10       6.584439422663e-14      -1.494332987929e-12       2.913090193075e-16       1.892486538474e-11       2.356272380885e-12      -9.128172838110e-15 
   81       2.996635565631e-10       6.794326150086e-14      -1.572408372612e-12       2.986581804939e-16       1.835516921364e-11       2.296639895811e-12      -8.914418935528e-15 
   82       3.034220569665e-10       7.005834624014e-14      -1.651762095052e-12       3.061005227927e-16       1.780809000948e-11       2.239241368934e-12      -8.719506490023e-15 
   83       3.072136625118e-10       7.218771623919e-14      -1.732320150650e-12       3.136367356340e-16       1.728154775916e-11       2.183858580606e-12      -8.551891313617e-15 
   84       3.110377964630e-10       7.432942903287e-14      -1.814009979794e-12       3.212675083186e-16       1.677351508987e-11       2.130279861456e-12      -8.418523534948e-15 
   85       3.148949019321e-10       7.648177136642e-14      -1.896778936294e-12       3.289933376907e-16       1.628366974062e-11       2.078477518748e-12      -8.317976879762e-15 
   86       3.187855206320e-10       7.864305747953e-14      -1.980578771530e-12       3.368146917478e-16       1.581198504981e-11       2.028456543176e-12      -8.246207081794e-15 
   87       3.227099568145e-10       8.081155731880e-14      -2.065360126888e-12       3.447320684264e-16       1.535822219074e-11       1.980200122884e-12      -8.198591041070e-15 
   88       3.266682650096e-10       8.298549664401e-14      -2.151072564138e-12       3.527459963879e-16       1.492192137418e-11       1.933668724156e-12      -8.169907995758e-15 
   89       3.306602377657e-10       8.516305713422e-14      -2.237664595811e-12       3.608570358027e-16       1.450239305105e-11       1.888799172097e-12      -8.154320694026e-15 
   90       3.346853933887e-10       8.734237649405e-14      -2.325083715564e-12       3.690657791360e-16       1.409870911503e-11       1.845503731329e-12      -8.145356565901e-15 
   91       3.387429636820e-10       8.952154855983e-14      -2.413276428560e-12       3.773728519322e-16       1.370969410516e-11       1.803669186665e-12      -8.135888895124e-15 
   92       3.428318816861e-10       9.169862340579e-14      -2.502188281839e-12       3.857789135999e-16       1.333391640851e-11       1.763155923807e-12      -8.118117991006e-15 
   93       3.469511158212e-10       9.387163107056e-14      -2.591762633529e-12       3.942845778466e-16       1.297002812743e-11       1.723832267094e-12      -8.085281474495e-15 
   94       3.511007564326e-10       9.603865658769e-14      -2.681936682748e-12       4.028901585873e-16       1.261786226146e-11       1.685685397125e-12      -8.037120274660e-15 
   95       3.552810707537e-10       9.819777648858e-14      -2.772644895980e-12       4.115958870940e-16       1.227748504402e-11       1.648725493062e-12      -7.975203732330e-15 
   96       3.594921636597e-10       1.003470366123e-13      -2.863820227918e-12       4.204019886274e-16       1.194885802348e-11       1.612951532446e-12      -7.901278576746e-15 
   97       3.637339701616e-10       1.024844525362e-13      -2.955394134527e-12       4.293086821190e-16       1.163183405187e-11       1.578350855858e-12      -7.817273832690e-15 
   98       3.680062479014e-10       1.046080100061e-13      -3.047296586111e-12       4.383161798529e-16       1.132615327352e-11       1.544898731567e-12      -7.725305727607e-15 
   99       3.723085696464e-10       1.067156653667e-13      -3.139456080365e-12       4.474246871480e-16       1.103143911380e-11       1.512557920188e-12      -7.627682598727e-15 
  100       3.766403157843e-10       1.088053459924e-13      -3.231799655444e-12       4.566344020399e-16       1.074719426780e-11       1.481278239336e-12      -7.526909800193e-15 
  101       3.810006668172e-10       1.108749507171e-13      -3.324252903023e-12       4.659455149631e-16       1.047279668899e-11       1.450996128281e-12      -7.425694610182e-15 
  102       3.853885958572e-10       1.129223502654e-13      -3.416739981357e-12       4.753582084326e-16       1.020749557793e-11       1.421634212602e-12      -7.326951138030e-15 
  103       3.898028611201e-10       1.149453876823e-13      -3.509183628345e-12       4.848726567263e-16       9.950407370958e-12       1.393100868840e-12      -7.233805231357e-15 
  104       3.942422689967e-10       1.169419356250e-13      -3.601506442677e-12       4.944891415802e-16       9.700716138515e-12       1.365311629604e-12      -7.148920657988e-15 
  105       3.987065199006e-10       1.189100761249e-13      -3.693634896255e-12       5.042084177591e-16       9.458314250375e-12       1.338257629634e-12      -7.072363418215e-15 
  106       4.031954632217e-10       1.208479460239e-13      -3.785495890666e-12       5.140313965061e-16       9.223241179609e-12       1.311945637237e-12      -7.003456737481e-15 
  107       4.077088324769e-10       1.227536833249e-13      -3.877015564167e-12       5.239590348846e-16       8.995485077492e-12       1.286376846516e-12      -6.941431508299e-15 
