# dimensionless total lensed [l(l+1)/2pi] C_l's
# for l=2 to 2600, i.e. number of multipoles equal to 2599
#
# -> if you prefer output in CAMB/HealPix/LensPix units/order, set 'format' to 'camb' in input file
# -> if you don't want to see such a header, set 'headers' to 'no' in input file
# -> for CMB lensing (phi), these are C_l^phi-phi for the lensing potential.
#    Remember the conversion factors:
#    C_l^dd (deflection) = l(l+1) C_l^phi-phi
#    C_l^gg (shear/convergence) = 1/4 (l(l+1))^2 C_l^phi-phi
#
# 1:l     2:TT                     3:EE                     4:TE                     5:BB                     6:phiphi                 7:TPhi                   8:Ephi               
    2       1.477633545321e-10       4.839272713470e-15       4.005027270548e-13       2.462773618336e-19       8.694664193392e-09       4.742803896235e-10      -2.047607452503e-12 
    3       1.397306934368e-10       6.550311839912e-15       4.556928706731e-13       4.925888477965e-19       5.350137479098e-09       3.375800571150e-10      -1.604977059397e-12 
    4       1.321157195996e-10       6.009958132435e-15       4.316487164662e-13       8.210594438260e-19       3.714072233394e-09       2.564195051427e-10      -1.102614797980e-12 
    5       1.263361615724e-10       4.259772330441e-15       3.716274184378e-13       1.231740619269e-18       2.768144821766e-09       2.029154328528e-10      -6.614191154103e-13 
    6       1.222986894723e-10       2.492384571074e-15       3.012376465967e-13       1.724701481378e-18       2.160141972566e-09       1.653041082825e-10      -3.189057808241e-13 
    7       1.196712311532e-10       1.329592784807e-15       2.360054751285e-13       2.300031452411e-18       1.741426172924e-09       1.377385648973e-10      -8.357426602569e-14 
    8       1.180699829456e-10       7.855685206444e-16       1.834669071340e-13       2.957843012857e-18       1.438551450541e-09       1.168222883641e-10       5.330061773614e-14 
    9       1.172540168488e-10       5.941014322089e-16       1.460918132816e-13       3.698274296145e-18       1.211040309777e-09       1.004733770080e-10       1.105262546879e-13 
   10       1.170158116491e-10       5.120548881261e-16       1.231757648077e-13       4.521491316029e-18       1.034853327057e-09       8.745510326447e-11       1.117317729399e-13 
   11       1.172249077533e-10       4.365188228663e-16       1.122545283204e-13       5.427689615465e-18       8.729174016900e-10       7.735673916230e-11       8.112757726214e-14 
   12       1.178223753624e-10       3.681230477540e-16       1.100949671773e-13       6.417095144966e-18       7.624823391862e-10       6.854916396374e-11       3.868536682276e-14 
   13       1.186699802156e-10       3.307283027621e-16       1.134240782814e-13       7.489964208501e-18       6.718104090152e-10       6.130378203075e-11      -6.442676838674e-16 
   14       1.196847062258e-10       3.269571268531e-16       1.196580552823e-13       8.646582354673e-18       5.965189847054e-10       5.501218429047e-11      -2.837429515530e-14 
   15       1.208958064842e-10       3.410694852811e-16       1.270861194284e-13       9.887262138519e-18       5.331661597924e-10       4.971491398372e-11      -4.155417939950e-14 
   16       1.223099530999e-10       3.599491519074e-16       1.346539965485e-13       1.121233973261e-17       4.791763777510e-10       4.520914878964e-11      -4.170602481141e-14 
   17       1.237806009171e-10       3.838605940265e-16       1.420800924426e-13       1.262217042288e-17       4.330563174081e-10       4.130203699954e-11      -3.331013319214e-14 
   18       1.253653890745e-10       4.220347752380e-16       1.494860396205e-13       1.411712371109e-17       3.929939455794e-10       3.775230597847e-11      -2.163192212730e-14 
   19       1.270813918787e-10       4.798801435806e-16       1.571266662350e-13       1.569757376818e-17       3.583201056897e-10       3.458162255875e-11      -1.039140315335e-14 
   20       1.288512992537e-10       5.600811631070e-16       1.652874775966e-13       1.736389909513e-17       3.278111132152e-10       3.183282392089e-11      -2.980841744622e-15 
   21       1.306898833944e-10       6.606444571539e-16       1.741335274400e-13       1.911646649146e-17       3.009796600018e-10       2.946945619959e-11      -4.699052904341e-17 
   22       1.326056279453e-10       7.776592538865e-16       1.837196962503e-13       2.095563148761e-17       2.771390510159e-10       2.738118604390e-11      -9.397209821175e-16 
   23       1.345835044020e-10       9.113339247649e-16       1.938309034864e-13       2.288172326270e-17       2.559746777095e-10       2.549726223436e-11      -4.321898631959e-15 
   24       1.365835024809e-10       1.062778788432e-15       2.040967419216e-13       2.489504497802e-17       2.370265038723e-10       2.374386554624e-11      -8.374267932191e-15 
   25       1.386277415086e-10       1.231303302092e-15       2.141722124177e-13       2.699586084189e-17       2.200638603463e-10       2.213675735736e-11      -1.176472433044e-14 
   26       1.407382982022e-10       1.415634648868e-15       2.236761629199e-13       2.918439607873e-17       2.047598129675e-10       2.070290888677e-11      -1.335524697034e-14 
   27       1.429040459296e-10       1.616120063494e-15       2.322685224189e-13       3.146082839077e-17       1.909247926670e-10       1.942990721140e-11      -1.301102622128e-14 
   28       1.450949915468e-10       1.833843919092e-15       2.396477046393e-13       3.382528832698e-17       1.783194989383e-10       1.828264805088e-11      -1.104879565460e-14 
   29       1.473186648902e-10       2.070888034137e-15       2.457756383397e-13       3.627786191824e-17       1.668839040994e-10       1.724250790902e-11      -8.126105088428e-15 
   30       1.495827236193e-10       2.329953217714e-15       2.507314934925e-13       3.881858231896e-17       1.565024271935e-10       1.628266623507e-11      -5.190279848245e-15 
   31       1.518833972076e-10       2.613684821961e-15       2.546428227948e-13       4.144743283931e-17       1.469697414528e-10       1.537006199862e-11      -3.228404725544e-15 
   32       1.542219004279e-10       2.922814077628e-15       2.576514706121e-13       4.416437487688e-17       1.382327284605e-10       1.451048848687e-11      -2.438077464380e-15 
   33       1.565912625770e-10       3.257297556636e-15       2.599417843159e-13       4.696932411143e-17       1.302211775198e-10       1.371914708538e-11      -2.746074128811e-15 
   34       1.589782795412e-10       3.617045621269e-15       2.616700405487e-13       4.986215448658e-17       1.228150353858e-10       1.300537248123e-11      -3.978031490581e-15 
   35       1.613905820384e-10       4.002876476197e-15       2.626756037635e-13       5.284274942578e-17       1.159787805054e-10       1.236151403372e-11      -5.723892143640e-15 
   36       1.638373403208e-10       4.415886143317e-15       2.626646852112e-13       5.591096446040e-17       1.096639913115e-10       1.176906015664e-11      -7.410955777960e-15 
   37       1.663221265967e-10       4.857136230073e-15       2.613397923705e-13       5.906663711912e-17       1.037946585583e-10       1.120722146370e-11      -8.474479336968e-15 
   38       1.688456260102e-10       5.327440800825e-15       2.585981307241e-13       6.230967408982e-17       9.835515059327e-11       1.067483032022e-11      -8.853879368927e-15 
   39       1.714025448632e-10       5.827505143794e-15       2.543966969720e-13       6.563999182293e-17       9.332538017485e-11       1.017504851473e-11      -8.658117388536e-15 
   40       1.739799537863e-10       6.357977518661e-15       2.486997952561e-13       6.905749337691e-17       8.865375642321e-11       9.709272014361e-12      -8.036535818891e-15 
   41       1.765632665804e-10       6.919467303768e-15       2.414891822507e-13       7.256209695886e-17       8.427487958187e-11       9.277134636132e-12      -7.167898272010e-15 
   42       1.791582652523e-10       7.512616542833e-15       2.327972605262e-13       7.615383233999e-17       8.017612192456e-11       8.876957511228e-12      -6.216274673649e-15 
   43       1.817750211872e-10       8.138044687283e-15       2.226855406630e-13       7.983277609294e-17       7.634812188236e-11       8.505139953630e-12      -5.365657800141e-15 
   44       1.844215469584e-10       8.796325720805e-15       2.112370801610e-13       8.359902798933e-17       7.276492341351e-11       8.155820663799e-12      -4.834474064840e-15 
   45       1.871032230842e-10       9.488003980554e-15       1.985239930716e-13       8.745272234087e-17       6.939346755539e-11       7.822662029317e-12      -4.811104591088e-15 
   46       1.898215023332e-10       1.021365345669e-14       1.844956603838e-13       9.139406105466e-17       6.622858028712e-11       7.505237505150e-12      -5.232941759319e-15 
   47       1.925743644474e-10       1.097383174882e-14       1.690590735722e-13       9.542329407737e-17       6.326618569695e-11       7.204266249319e-12      -5.944541715722e-15 
   48       1.953563121467e-10       1.176906162884e-14       1.521088273508e-13       9.954071362682e-17       6.049270794750e-11       6.919770468690e-12      -6.756430250049e-15 
   49       1.981580868060e-10       1.259982947439e-14       1.335263424990e-13       1.037466568491e-16       5.788436639507e-11       6.651018865382e-12      -7.443196843448e-15 
   50       2.009703195338e-10       1.346654861270e-14       1.132033418369e-13       1.080414836409e-16       5.541429343997e-11       6.396867711644e-12      -7.803385542807e-15 
   51       2.037963123789e-10       1.436944125665e-14       9.112159350810e-14       1.124254968540e-16       5.307780111314e-11       6.157024422810e-12      -7.862754472608e-15 
   52       2.066422349681e-10       1.530862181372e-14       6.729346971594e-14       1.168990050246e-16       5.087275438940e-11       5.931029210586e-12      -7.722894264751e-15 
   53       2.095133955518e-10       1.628412603309e-14       4.173994090955e-14       1.214623467678e-16       4.879201911624e-11       5.717850487598e-12      -7.505231707651e-15 
   54       2.124141418758e-10       1.729590778790e-14       1.449093993414e-14       1.261158922667e-16       4.682312526173e-11       5.515847025726e-12      -7.352031880027e-15 
   55       2.153476896973e-10       1.834391162321e-14      -1.442757285420e-14       1.308599874117e-16       4.495208302725e-11       5.323242816351e-12      -7.391599834302e-15 
   56       2.183157855360e-10       1.942831887703e-14      -4.503701135458e-14       1.356947665607e-16       4.317671279658e-11       5.139776484059e-12      -7.621466702778e-15 
   57       2.213187865142e-10       2.054935706472e-14      -7.737290604797e-14       1.406202958720e-16       4.149603678446e-11       4.965395340066e-12      -7.997939828497e-15 
   58       2.243556256458e-10       2.170722920994e-14      -1.114727002511e-13       1.456366258476e-16       3.990624515599e-11       4.799761102684e-12      -8.468976598689e-15 
   59       2.274237098903e-10       2.290211357866e-14      -1.473759041107e-13       1.507437905874e-16       3.840052107435e-11       4.642232031054e-12      -8.973791755815e-15 
   60       2.305188182063e-10       2.413416341328e-14      -1.851242485971e-13       1.559418070435e-16       3.696886574861e-11       4.491845058885e-12      -9.442464708614e-15 
   61       2.336367372803e-10       2.540341595681e-14      -2.247510615722e-13       1.612306393731e-16       3.560087769995e-11       4.347595742609e-12      -9.811207596605e-15 
   62       2.367788283876e-10       2.670949626440e-14      -2.662462610074e-13       1.666100843356e-16       3.429521534180e-11       4.209391953626e-12      -1.007306260014e-14 
   63       2.399475348542e-10       2.805184613467e-14      -3.095837416223e-13       1.720798587307e-16       3.305195758771e-11       4.077283522731e-12      -1.023793914036e-14 
   64       2.431447087596e-10       2.942980587135e-14      -3.547312751798e-13       1.776396302136e-16       3.186975744830e-11       3.951175065193e-12      -1.031805943012e-14 
   65       2.463715641255e-10       3.084261113912e-14      -4.016503225042e-13       1.832890154410e-16       3.074576081412e-11       3.830817563922e-12      -1.032806268889e-14 
   66       2.496286301050e-10       3.228938981961e-14      -4.502958455000e-13       1.890275782183e-16       2.967552523857e-11       3.715799952624e-12      -1.028510935765e-14 
   67       2.529157041707e-10       3.376915886730e-14      -5.006161191702e-13       1.948548276465e-16       2.865293872074e-11       3.605540698968e-12      -1.020898531382e-14 
   68       2.562324209537e-10       3.528093990484e-14      -5.525634443373e-13       2.007702914321e-16       2.767185345485e-11       3.499450434148e-12      -1.011806428783e-14 
   69       2.595801972399e-10       3.682414023579e-14      -6.061292266397e-13       2.067737572128e-16       2.673155303404e-11       3.397476921464e-12      -1.001601214220e-14 
   70       2.629605987983e-10       3.839824374169e-14      -6.613157004236e-13       2.128650770261e-16       2.583225223402e-11       3.299655899714e-12      -9.902563367362e-15 
   71       2.663747290924e-10       4.000269886822e-14      -7.181257461276e-13       2.190440965401e-16       2.497344337778e-11       3.205945837361e-12      -9.777422827774e-15 
   72       2.698231982152e-10       4.163691851796e-14      -7.765629810922e-13       2.253106551226e-16       2.415385897954e-11       3.116223890287e-12      -9.640264048483e-15 
   73       2.733060918228e-10       4.330027994314e-14      -8.366318503682e-13       2.316645859100e-16       2.337143438870e-11       3.030281859543e-12      -9.490727501686e-15 
   74       2.768229400692e-10       4.499212463838e-14      -8.983377175257e-13       2.381057158764e-16       2.262327043372e-11       2.947822149093e-12      -9.328418893299e-15 
   75       2.803726865400e-10       4.671175823341e-14      -9.616869554634e-13       2.446338659027e-16       2.190559606610e-11       2.868453723570e-12      -9.152907449514e-15 
   76       2.839542268636e-10       4.845839272073e-14      -1.026678495744e-12       2.512489496772e-16       2.121470548634e-11       2.791793025272e-12      -8.964502307937e-15 
   77       2.875682066051e-10       5.023096121291e-14      -1.093276496782e-12       2.579512910644e-16       2.055004938821e-11       2.717796906338e-12      -8.766748929348e-15 
   78       2.912154963100e-10       5.202826905358e-14      -1.161432833394e-12       2.647413650045e-16       1.991164216836e-11       2.646483346477e-12      -8.564386920708e-15 
   79       2.948966318424e-10       5.384904721692e-14      -1.231095113135e-12       2.716197058775e-16       1.929912036006e-11       2.577830020299e-12      -8.362626327904e-15 
   80       2.986117950015e-10       5.569195101796e-14      -1.302206591960e-12       2.785869095997e-16       1.871172525969e-11       2.511772407339e-12      -8.167161877976e-15 
   81       3.023607941370e-10       5.755555882286e-14      -1.374706089884e-12       2.856436357186e-16       1.814828555323e-11       2.448201902083e-12      -7.984187221345e-15 
   82       3.061430447654e-10       5.943837075917e-14      -1.448527906635e-12       2.927906095091e-16       1.760719994266e-11       2.386963923990e-12      -7.820409174040e-15 
   83       3.099575501857e-10       6.133880742608e-14      -1.523601737320e-12       3.000286240691e-16       1.708641977254e-11       2.327856027517e-12      -7.683061959928e-15 
   84       3.138033448020e-10       6.325527798083e-14      -1.599859411994e-12       3.073584649118e-16       1.658394761562e-11       2.270680444932e-12      -7.577998342866e-15 
   85       3.176809509938e-10       6.518640019163e-14      -1.677256582852e-12       3.147806647893e-16       1.609946605507e-11       2.215415862850e-12      -7.503568232053e-15 
   86       3.215911293468e-10       6.713081466980e-14      -1.755754494396e-12       3.222957118772e-16       1.563294832184e-11       2.162070789838e-12      -7.455746673236e-15 
   87       3.255344259841e-10       6.908711861525e-14      -1.835313509084e-12       3.299041244458e-16       1.518415776934e-11       2.110630694776e-12      -7.429948919220e-15 
   88       3.295111609588e-10       7.105386569280e-14      -1.915893137673e-12       3.376064516531e-16       1.475263917148e-11       2.061057031724e-12      -7.421012350916e-15 
   89       3.335214166461e-10       7.302956590835e-14      -1.997452069568e-12       3.454032743377e-16       1.433771002080e-11       2.013286264778e-12      -7.423178398395e-15 
   90       3.375650261365e-10       7.501268548522e-14      -2.079948203169e-12       3.532952058125e-16       1.393845182643e-11       1.967228892937e-12      -7.430074461932e-15 
   91       3.416415616275e-10       7.700164674036e-14      -2.163338676215e-12       3.612828926572e-16       1.355370141221e-11       1.922768474956e-12      -7.434695833060e-15 
   92       3.457503228168e-10       7.899482796064e-14      -2.247579896135e-12       3.693670155117e-16       1.318204221472e-11       1.879760654215e-12      -7.429387615617e-15 
   93       3.498906076941e-10       8.099058109026e-14      -2.332625517369e-12       3.775481801773e-16       1.282214055310e-11       1.838068088149e-12      -7.407559239241e-15 
   94       3.540625967166e-10       8.298728810488e-14      -2.418419959443e-12       3.858265704615e-16       1.247383119233e-11       1.797673363965e-12      -7.369162238166e-15 
   95       3.582665807714e-10       8.498331292684e-14      -2.504903965585e-12       3.942022443446e-16       1.213717971944e-11       1.758581341544e-12      -7.316006738035e-15 
   96       3.625026829971e-10       8.697698448859e-14      -2.592016571018e-12       4.026752383159e-16       1.181214820588e-11       1.720784286225e-12      -7.250107898475e-15 
   97       3.667708510531e-10       8.896659685341e-14      -2.679695105127e-12       4.112455666620e-16       1.149859124092e-11       1.684261386520e-12      -7.173691617157e-15 
   98       3.710708493882e-10       9.095040933618e-14      -2.767875193624e-12       4.199132207533e-16       1.119625196510e-11       1.648978271834e-12      -7.089200233859e-15 
   99       3.754022515099e-10       9.292664662413e-14      -2.856490760712e-12       4.286781683320e-16       1.090475810366e-11       1.614886530178e-12      -6.999298234530e-15 
  100       3.797644322532e-10       9.489349889758e-14      -2.945474031251e-12       4.375403527992e-16       1.062361799995e-11       1.581923225891e-12      -6.906877955350e-15 
  101       3.841565600495e-10       9.684912195070e-14      -3.034755532924e-12       4.464996925025e-16       1.035221664887e-11       1.550010417354e-12      -6.815065286792e-15 
  102       3.885775891960e-10       9.879163731225e-14      -3.124264098401e-12       4.555560800231e-16       1.008981173027e-11       1.519054674706e-12      -6.727225377683e-15 
  103       3.930262521239e-10       1.007191323663e-13      -3.213926867503e-12       4.647093814637e-16       9.835529642383e-12       1.488946597565e-12      -6.646968339271e-15 
  104       3.975013400387e-10       1.026297129313e-13      -3.303671001190e-12       4.739596029777e-16       9.588563636545e-12       1.459585752097e-12      -6.577347054532e-15 
  105       4.020026046645e-10       1.045216688251e-13      -3.393429082535e-12       4.833074175143e-16       9.348807246884e-12       1.430960357460e-12      -6.518314906502e-15 
  106       4.065299644660e-10       1.063933309950e-13      -3.483134452777e-12       4.927537082318e-16       9.116299431245e-12       1.403077514837e-12      -6.468933661363e-15 
  107       4.110832226489e-10       1.082430217448e-13      -3.572719585370e-12       5.022994087211e-16       8.891028386317e-12       1.375938548833e-12      -6.428147560317e-15 
