# Matter power spectrum P(k) at redshift z=3
# for k=1.04224e-05 to 1.4771 h/Mpc,
# number of wavenumbers equal to 610
#    1:k (h/Mpc)              2:P (Mpc/h)^3        
       1.042244415558e-05       5.301011936140e+00 
       2.348460766993e-05       1.158048120474e+01 
       3.659352655384e-05       1.774198122046e+01 
       4.978547181138e-05       2.385596780140e+01 
       6.309732687896e-05       2.996208296168e+01 
       7.656692578574e-05       3.608984163380e+01 
       9.023340236011e-05       4.226438273565e+01 
       1.041375552500e-04       4.850881488508e+01 
       1.183222335600e-04       5.484541520254e+01 
       1.328327479433e-04       6.129635383180e+01 
       1.477173119870e-04       6.788419658878e+01 
       1.630275186519e-04       7.463229622551e+01 
       1.788188563073e-04       8.156512640026e+01 
       1.951512684563e-04       8.870858710827e+01 
       2.120897604558e-04       9.609029766537e+01 
       2.297050552488e-04       1.037398929812e+02 
       2.480742981394e-04       1.116892876883e+02 
       2.672818076937e-04       1.199730075501e+02 
       2.874198656201e-04       1.286284548738e+02 
       3.085895325794e-04       1.376962050555e+02 
       3.309014688607e-04       1.472202692209e+02 
       3.544767282663e-04       1.572483365666e+02 
       3.794474799738e-04       1.678319586229e+02 
       4.059575963491e-04       1.790266536793e+02 
       4.341630248273e-04       1.908918939998e+02 
       4.642318398748e-04       2.034909296932e+02 
       4.963438486100e-04       2.168904075082e+02 
       5.306896042903e-04       2.311596706368e+02 
       5.674686708995e-04       2.463698092020e+02 
       6.068869868229e-04       2.625922396342e+02 
       6.491532049057e-04       2.798969022581e+02 
       6.944739488507e-04       2.983500320254e+02 
       7.430480277709e-04       3.180115241175e+02 
       7.950597906215e-04       3.389320875115e+02 
       8.506719676565e-04       3.611502746393e+02 
       9.100185105785e-04       3.846896777313e+02 
       9.731980682131e-04       4.095566033397e+02 
       1.040268778204e-03       4.357384768193e+02 
       1.111244985561e-03       4.632031642429e+02 
       1.186096309473e-03       4.918995104742e+02 
       1.264749198301e-03       5.217588466962e+02 
       1.347090796618e-03       5.526974789957e+02 
       1.432974667733e-03       5.846198403513e+02 
       1.477104874446e-03       6.008857302909e+02 
       1.522227729371e-03       6.174219267412e+02 
       1.614657698259e-03       6.509948236231e+02 
       1.710060395074e-03       6.852279108569e+02 
       1.808226400697e-03       7.200116469811e+02 
       1.908946732828e-03       7.552398589252e+02 
       2.012017387398e-03       7.908107297204e+02 
       2.117242733932e-03       8.266287253492e+02 
       2.224437855663e-03       8.626074060949e+02 
       2.333429983773e-03       8.986664624117e+02 
       2.444059198345e-03       9.347331404915e+02 
       2.556178566632e-03       9.707380249413e+02 
       2.669653872257e-03       1.006635196160e+03 
       2.784363064637e-03       1.042360800266e+03 
       2.900195532050e-03       1.077873539027e+03 
       3.017051277370e-03       1.113133598892e+03 
       3.134840054483e-03       1.148106193454e+03 
       3.253480506165e-03       1.182761033289e+03 
       3.372899330720e-03       1.217071835971e+03 
       3.493030494480e-03       1.251015893672e+03 
       3.613814499823e-03       1.284573686675e+03 
       3.735197713069e-03       1.317728542406e+03 
       3.857131753000e-03       1.350466328337e+03 
       3.979572938389e-03       1.382775183147e+03 
       4.102481791433e-03       1.414639988433e+03 
       4.225822593166e-03       1.446062908079e+03 
       4.349562986551e-03       1.477031618201e+03 
       4.473673622850e-03       1.507543750110e+03 
       4.598127846992e-03       1.537592274970e+03 
       4.722901417861e-03       1.567182205656e+03 
       4.847972259749e-03       1.596298613391e+03 
       4.973320241497e-03       1.624946687788e+03 
       5.098926980212e-03       1.653126044064e+03 
       5.224775666741e-03       1.680836931539e+03 
       5.350850910392e-03       1.708072802036e+03 
       5.477138600675e-03       1.734848693582e+03 
       5.603625784081e-03       1.761162398451e+03 
       5.730300554162e-03       1.787009583181e+03 
       5.857151953356e-03       1.812398579672e+03 
       5.984169885225e-03       1.837330347742e+03 
       6.111345035882e-03       1.861807901038e+03 
       6.238668803584e-03       1.885834654603e+03 
       6.366133235544e-03       1.909412121133e+03 
       6.493730971162e-03       1.932545584047e+03 
       6.621455190961e-03       1.955238715290e+03 
       6.749299570581e-03       1.977495180415e+03 
       6.877258239294e-03       1.999319029320e+03 
       7.005325742540e-03       2.020711946928e+03 
       7.133497008053e-03       2.041682840724e+03 
       7.261767315195e-03       2.062230889988e+03 
       7.390132267161e-03       2.082362587490e+03 
       7.518587765755e-03       2.102083447344e+03 
       7.647129988473e-03       2.121395284307e+03 
       7.775755367654e-03       2.140302610635e+03 
       7.904460571497e-03       2.158812378583e+03 
       8.033242486749e-03       2.176924986606e+03 
       8.162098202912e-03       2.194646680284e+03 
       8.291024997798e-03       2.211981525908e+03 
       8.420020324334e-03       2.228933963138e+03 
       8.549081798468e-03       2.245505748634e+03 
       8.678207188090e-03       2.261705523326e+03 
       8.807394402862e-03       2.277535550376e+03 
       8.936641484887e-03       2.292998418515e+03 
       9.065946600127e-03       2.308101126126e+03 
       9.195308030502e-03       2.322845168474e+03 
       9.324724166632e-03       2.337236960645e+03 
       9.454193501127e-03       2.351278200229e+03 
       9.583714622415e-03       2.364973638443e+03 
       9.713286209034e-03       2.378327930210e+03 
       9.842907024368e-03       2.391344327307e+03 
       9.972575911775e-03       2.404027589060e+03 
       1.010229179008e-02       2.416379916547e+03 
       1.023205364942e-02       2.428406979284e+03 
       1.036186054734e-02       2.440111491491e+03 
       1.049171160528e-02       2.451496928386e+03 
       1.062160600519e-02       2.462568727626e+03 
       1.075154298651e-02       2.473329023205e+03 
       1.088152184325e-02       2.483781956815e+03 
       1.101154192140e-02       2.493931273518e+03 
       1.114160261642e-02       2.503781318797e+03 
       1.127170337097e-02       2.513332894413e+03 
       1.140184367278e-02       2.522592527091e+03 
       1.153202305267e-02       2.531562897995e+03 
       1.166224108271e-02       2.540247463678e+03 
       1.179249737450e-02       2.548647969439e+03 
       1.192279157760e-02       2.556769188739e+03 
       1.205312337805e-02       2.564614857622e+03 
       1.218349249695e-02       2.572188013202e+03 
       1.231389868924e-02       2.579491561375e+03 
       1.244434174248e-02       2.586529260737e+03 
       1.257482147576e-02       2.593303736585e+03 
       1.270533773865e-02       2.599819620794e+03 
       1.283589041029e-02       2.606076633883e+03 
       1.296647939848e-02       2.612081534938e+03 
       1.309710463884e-02       2.617836229535e+03 
       1.322776609411e-02       2.623343712831e+03 
       1.335846375341e-02       2.628607383929e+03 
       1.348919763162e-02       2.633630009241e+03 
       1.361996776874e-02       2.638414318607e+03 
       1.375077422943e-02       2.642963546519e+03 
       1.388161710239e-02       2.647280384309e+03 
       1.401249650001e-02       2.651368118706e+03 
       1.414341255790e-02       2.655228983066e+03 
       1.427436543450e-02       2.658866291619e+03 
       1.440535531078e-02       2.662282212562e+03 
       1.453638238989e-02       2.665480721537e+03 
       1.466744689690e-02       2.668463893068e+03 
       1.477104874446e-02       2.670670810334e+03 
       1.479854907856e-02       2.671234364168e+03 
       1.492968920309e-02       2.673795274868e+03 
       1.506086755997e-02       2.676149055494e+03 
       1.519208445982e-02       2.678298627708e+03 
       1.532334023423e-02       2.680246575058e+03 
       1.545463523567e-02       2.681995604485e+03 
       1.558596983742e-02       2.683548188366e+03 
       1.571734443351e-02       2.684906997517e+03 
       1.584875943864e-02       2.686074678536e+03 
       1.598021528823e-02       2.687053248298e+03 
       1.611171243841e-02       2.687845827257e+03 
       1.624325136600e-02       2.688454697950e+03 
       1.637483256862e-02       2.688882419949e+03 
       1.650645656475e-02       2.689131426043e+03 
       1.663812389377e-02       2.689204140169e+03 
       1.676983511612e-02       2.689103066151e+03 
       1.690159081340e-02       2.688830607230e+03 
       1.703339158850e-02       2.688389137947e+03 
       1.716523806580e-02       2.687781017360e+03 
       1.729713089131e-02       2.687008588838e+03 
       1.742907073289e-02       2.686074390099e+03 
       1.756105828043e-02       2.684980460010e+03 
       1.769309424612e-02       2.683729602862e+03 
       1.782517936467e-02       2.682323680409e+03 
       1.795731439360e-02       2.680764985172e+03 
       1.808950011346e-02       2.679056003275e+03 
       1.822173732820e-02       2.677198880638e+03 
       1.835402686544e-02       2.675195860579e+03 
       1.848636957681e-02       2.673049080402e+03 
       1.861876633828e-02       2.670760722697e+03 
       1.875121805057e-02       2.668332982886e+03 
       1.888372563948e-02       2.665767570137e+03 
       1.901629005631e-02       2.663067304432e+03 
       1.914891227827e-02       2.660233727447e+03 
       1.928159330892e-02       2.657268998074e+03 
       1.941433417860e-02       2.654175233689e+03 
       1.954713594494e-02       2.650954443490e+03 
       1.967999969327e-02       2.647608774947e+03 
       1.981292653722e-02       2.644140195740e+03 
       1.994591761915e-02       2.640550768316e+03 
       2.007897411078e-02       2.636842513373e+03 
       2.021209721365e-02       2.633017335768e+03 
       2.034528815980e-02       2.629077284089e+03 
       2.047854821230e-02       2.625024527633e+03 
       2.061187866591e-02       2.620860869413e+03 
       2.074528084769e-02       2.616588314227e+03 
       2.087875611771e-02       2.612208811392e+03 
       2.101230586967e-02       2.607724287883e+03 
       2.114593153167e-02       2.603136682510e+03 
       2.127963456691e-02       2.598447799934e+03 
       2.141341647442e-02       2.593659574356e+03 
       2.154727878990e-02       2.588773840687e+03 
       2.168122308647e-02       2.583792095435e+03 
       2.181525097552e-02       2.578716379601e+03 
       2.194936410754e-02       2.573561400790e+03 
       2.208356417305e-02       2.568303431037e+03 
       2.221785290346e-02       2.562954633521e+03 
       2.235223207203e-02       2.557518643305e+03 
       2.248670349484e-02       2.551997176876e+03 
       2.262126903175e-02       2.546391934198e+03 
       2.275593058750e-02       2.540704599526e+03 
       2.289069011270e-02       2.534936841588e+03 
       2.302554960494e-02       2.529090343359e+03 
       2.316051110994e-02       2.523166682507e+03 
       2.329557672270e-02       2.517167511006e+03 
       2.343074858870e-02       2.511094435272e+03 
       2.356602890510e-02       2.504949046031e+03 
       2.370141992209e-02       2.498732918497e+03 
       2.383692394413e-02       2.492447612261e+03 
       2.397254333135e-02       2.486094671171e+03 
       2.410828050095e-02       2.479675623676e+03 
       2.424413792862e-02       2.473191982414e+03 
       2.438011815003e-02       2.466645238093e+03 
       2.451622376240e-02       2.460036884872e+03 
       2.465245742606e-02       2.453368413140e+03 
       2.478882186609e-02       2.446641210571e+03 
       2.492531987403e-02       2.439856756208e+03 
       2.506195430959e-02       2.433016442219e+03 
       2.519872810250e-02       2.426121684804e+03 
       2.533564425432e-02       2.419173871250e+03 
       2.547270584043e-02       2.412174373085e+03 
       2.560991601194e-02       2.405124546065e+03 
       2.574727799782e-02       2.398025730217e+03 
       2.588479510695e-02       2.390879249892e+03 
       2.602247073037e-02       2.383686413478e+03 
       2.616030834354e-02       2.376448513789e+03 
       2.629831150865e-02       2.369166860053e+03 
       2.643648387709e-02       2.361842648130e+03 
       2.657482919193e-02       2.354477156026e+03 
       2.671335129052e-02       2.347071613133e+03 
       2.685205410720e-02       2.339627233050e+03 
       2.699094167605e-02       2.332145213426e+03 
       2.713001813381e-02       2.324626736029e+03 
       2.726928772282e-02       2.317072965590e+03 
       2.740875479412e-02       2.309485056924e+03 
       2.754842381067e-02       2.301864154216e+03 
       2.768829935065e-02       2.294211346004e+03 
       2.782838611092e-02       2.286527751403e+03 
       2.796868891053e-02       2.278814455360e+03 
       2.810921269449e-02       2.271072529268e+03 
       2.824996253754e-02       2.263303033407e+03 
       2.839094364817e-02       2.255506993980e+03 
       2.853216137273e-02       2.247685439388e+03 
       2.867362119971e-02       2.239839387704e+03 
       2.881532876423e-02       2.231969804826e+03 
       2.895728985260e-02       2.224077680762e+03 
       2.909951040719e-02       2.216163971907e+03 
       2.924199653137e-02       2.208229628088e+03 
       2.938475449474e-02       2.200275561250e+03 
       2.952779073850e-02       2.192302692627e+03 
       2.967111188107e-02       2.184311909306e+03 
       2.981472472395e-02       2.176304098312e+03 
       2.995863625780e-02       2.168280131065e+03 
       3.010285366874e-02       2.160240819922e+03 
       3.024738434498e-02       2.152187014358e+03 
       3.039223588370e-02       2.144119528358e+03 
       3.053741609818e-02       2.136039159439e+03 
       3.068293302528e-02       2.127946689524e+03 
       3.082879493325e-02       2.119842883900e+03 
       3.097501032985e-02       2.111728491787e+03 
       3.112158797081e-02       2.103604246248e+03 
       3.126853686872e-02       2.095470863979e+03 
       3.141586630228e-02       2.087329045537e+03 
       3.156358582593e-02       2.079179475603e+03 
       3.171170528003e-02       2.071022821209e+03 
       3.186023480136e-02       2.062859734341e+03 
       3.200918483421e-02       2.054690850199e+03 
       3.215856614196e-02       2.046516787539e+03 
       3.230838981918e-02       2.038338148660e+03 
       3.245866730435e-02       2.030155519371e+03 
       3.260941039315e-02       2.021969467072e+03 
       3.276063125237e-02       2.013780548157e+03 
       3.291234243462e-02       2.005589296772e+03 
       3.306455689362e-02       1.997396231844e+03 
       3.321728800031e-02       1.989201856576e+03 
       3.337054955983e-02       1.981006694379e+03 
       3.352435582928e-02       1.972811142186e+03 
       3.367872153641e-02       1.964615680823e+03 
       3.383366189933e-02       1.956420749482e+03 
       3.398919264716e-02       1.948226766054e+03 
       3.414533004191e-02       1.940034130234e+03 
       3.430209090139e-02       1.931843227358e+03 
       3.445949262345e-02       1.923654417438e+03 
       3.461755321153e-02       1.915468062246e+03 
       3.477629130157e-02       1.907284470377e+03 
       3.493572619053e-02       1.899103956851e+03 
       3.509587786643e-02       1.890926841924e+03 
       3.525676704010e-02       1.882753370397e+03 
       3.541841517890e-02       1.874583811489e+03 
       3.558084454221e-02       1.866418403767e+03 
       3.574407821920e-02       1.858257367212e+03 
       3.590814016877e-02       1.850100899908e+03 
       3.607305526189e-02       1.841949195430e+03 
       3.623884932663e-02       1.833802399930e+03 
       3.640554919588e-02       1.825660662175e+03 
       3.657318275811e-02       1.817524104333e+03 
       3.674177901140e-02       1.809392825389e+03 
       3.691136812084e-02       1.801266911511e+03 
       3.708198147979e-02       1.793146439067e+03 
       3.725365177508e-02       1.785031407884e+03 
       3.742641305666e-02       1.776921853325e+03 
       3.760030081189e-02       1.768817769570e+03 
       3.777535204497e-02       1.760719127672e+03 
       3.795160536190e-02       1.752625875151e+03 
       3.812910106140e-02       1.744537935667e+03 
       3.830788123232e-02       1.736455208238e+03 
       3.848798985817e-02       1.728377566904e+03 
       3.866947292928e-02       1.720304859493e+03 
       3.885237856329e-02       1.712236907217e+03 
       3.903675713484e-02       1.704173497411e+03 
       3.922266141511e-02       1.696114431294e+03 
       3.941014672230e-02       1.688059392623e+03 
       3.959927108396e-02       1.680008110226e+03 
       3.979009541233e-02       1.671960258487e+03 
       3.998268369403e-02       1.663915479091e+03 
       4.017710319537e-02       1.655873379913e+03 
       4.037342468500e-02       1.647833533576e+03 
       4.057172267548e-02       1.639795475801e+03 
       4.077207568593e-02       1.631758703866e+03 
       4.097456652783e-02       1.623722674892e+03 
       4.117928261640e-02       1.615686804106e+03 
       4.138631631058e-02       1.607650461919e+03 
       4.159576528441e-02       1.599612996050e+03 
       4.180773293368e-02       1.591573634582e+03 
       4.202232882163e-02       1.583531624533e+03 
       4.223966916837e-02       1.575486134073e+03 
       4.245987738916e-02       1.567436275082e+03 
       4.268308468743e-02       1.559381099964e+03 
       4.290943070936e-02       1.551319579177e+03 
       4.313906426756e-02       1.543250635922e+03 
       4.337214414284e-02       1.535173102075e+03 
       4.360883997416e-02       1.527085737167e+03 
       4.384933324848e-02       1.518987212338e+03 
       4.409381840412e-02       1.510876103724e+03 
       4.434250406322e-02       1.502750902242e+03 
       4.459561441166e-02       1.494609953202e+03 
       4.485339074774e-02       1.486451512646e+03 
       4.511609322439e-02       1.478273721465e+03 
       4.538400281429e-02       1.470074534596e+03 
       4.565742353217e-02       1.461851788246e+03 
       4.593668495489e-02       1.453603138691e+03 
       4.622214508755e-02       1.445326054966e+03 
       4.651419363264e-02       1.437017798185e+03 
       4.681325573075e-02       1.428675398930e+03 
       4.711979625447e-02       1.420295629722e+03 
       4.743432475417e-02       1.411874974025e+03 
       4.775740117425e-02       1.403409605093e+03 
       4.808964248435e-02       1.394895280001e+03 
       4.843173040083e-02       1.386327380368e+03 
       4.878442041346e-02       1.377700799258e+03 
       4.914855238086e-02       1.369009861245e+03 
       4.952506302041e-02       1.360248268031e+03 
       4.991500069540e-02       1.351408943931e+03 
       5.031954300152e-02       1.342483956611e+03 
       5.074001777921e-02       1.333464323369e+03 
       5.117792833809e-02       1.324339814309e+03 
       5.163498388266e-02       1.315098711443e+03 
       5.211313638716e-02       1.305727435629e+03 
       5.261462549651e-02       1.296210206626e+03 
       5.314203344565e-02       1.286528443608e+03 
       5.369835250859e-02       1.276660084133e+03 
       5.428706812257e-02       1.266578650704e+03 
       5.491226158046e-02       1.256251987667e+03 
       5.557873700401e-02       1.245640527846e+03 
       5.629217807931e-02       1.234695018462e+03 
       5.705934045527e-02       1.223353269072e+03 
       5.788828512892e-02       1.211542996742e+03 
       5.878865525258e-02       1.199145900134e+03 
       5.977199105583e-02       1.186033704938e+03 
       6.085206034913e-02       1.172025807540e+03 
