# Matter power spectrum P(k) at redshift z=3
# for k=1.04224e-05 to 1.4771 h/Mpc,
# number of wavenumbers equal to 610
#    1:k (h/Mpc)              2:P (Mpc/h)^3        
       1.042244415558e-05       5.289065281715e+00 
       2.348460766993e-05       1.155438278875e+01 
       3.659352655384e-05       1.770199690173e+01 
       4.978547181138e-05       2.380220465376e+01 
       6.309732687896e-05       2.989455871755e+01 
       7.656692578574e-05       3.600850750694e+01 
       9.023340236011e-05       4.216913328288e+01 
       1.041375552500e-04       4.839949258146e+01 
       1.183222335600e-04       5.472181231480e+01 
       1.328327479433e-04       6.115821265874e+01 
       1.477173119870e-04       6.773120856872e+01 
       1.630275186519e-04       7.446410016173e+01 
       1.788188563073e-04       8.138130593349e+01 
       1.951512684563e-04       8.850866750048e+01 
       2.120897604558e-04       9.587374192275e+01 
       2.297050552488e-04       1.035060971507e+02 
       2.480742981394e-04       1.114375761793e+02 
       2.672818076937e-04       1.197026267928e+02 
       2.874198656201e-04       1.283385670044e+02 
       3.085895325794e-04       1.373858806772e+02 
       3.309014688607e-04       1.468884797282e+02 
       3.544767282663e-04       1.568939458159e+02 
       3.794474799738e-04       1.674537142090e+02 
       4.059575963491e-04       1.786231779701e+02 
       4.341630248273e-04       1.904616751868e+02 
       4.642318398748e-04       2.030323132438e+02 
       4.963438486100e-04       2.164016273408e+02 
       5.306896042903e-04       2.306387279397e+02 
       5.674686708995e-04       2.458145816786e+02 
       6.068869868229e-04       2.620004434216e+02 
       6.491532049057e-04       2.792660950518e+02 
       6.944739488507e-04       2.976776272892e+02 
       7.430480277709e-04       3.172947870505e+02 
       7.950597906215e-04       3.381681700328e+02 
       8.506719676565e-04       3.603362441168e+02 
       9.100185105785e-04       3.838225465659e+02 
       9.731980682131e-04       4.086333654816e+02 
       1.040268778204e-03       4.347561597071e+02 
       1.111244985561e-03       4.621588356756e+02 
       1.186096309473e-03       4.907903614004e+02 
       1.264749198301e-03       5.205822149282e+02 
       1.347090796618e-03       5.514508778278e+02 
       1.432974667733e-03       5.833009981416e+02 
       1.477104874446e-03       5.995300461769e+02 
       1.522227729371e-03       6.160287815931e+02 
       1.614657698259e-03       6.495255540955e+02 
       1.710060395074e-03       6.836809324086e+02 
       1.808226400697e-03       7.183856017307e+02 
       1.908946732828e-03       7.535336249420e+02 
       2.012017387398e-03       7.890233880276e+02 
       2.117242733932e-03       8.247595808237e+02 
       2.224437855663e-03       8.606559305033e+02 
       2.333429983773e-03       8.966322965486e+02 
       2.444059198345e-03       9.326160746962e+02 
       2.556178566632e-03       9.685425606948e+02 
       2.669653872257e-03       1.004352269270e+03 
       2.784363064637e-03       1.039995129501e+03 
       2.900195532050e-03       1.075425379519e+03 
       3.017051277370e-03       1.110603286595e+03 
       3.134840054483e-03       1.145494136666e+03 
       3.253480506165e-03       1.180067703926e+03 
       3.372899330720e-03       1.214297758043e+03 
       3.493030494480e-03       1.248161634765e+03 
       3.613814499823e-03       1.281639854611e+03 
       3.735197713069e-03       1.314715778303e+03 
       3.857131753000e-03       1.347375299611e+03 
       3.979572938389e-03       1.379606583088e+03 
       4.102481791433e-03       1.411400255943e+03 
       4.225822593166e-03       1.442747316162e+03 
       4.349562986551e-03       1.473641778768e+03 
       4.473673622850e-03       1.504078534894e+03 
       4.598127846992e-03       1.534053717373e+03 
       4.722901417861e-03       1.563563495233e+03 
       4.847972259749e-03       1.592607512405e+03 
       4.973320241497e-03       1.621183954744e+03 
       5.098926980212e-03       1.649292438447e+03 
       5.224775666741e-03       1.676933209833e+03 
       5.350850910392e-03       1.704107613608e+03 
       5.477138600675e-03       1.730815536662e+03 
       5.603625784081e-03       1.757059116632e+03 
       5.730300554162e-03       1.782841387188e+03 
       5.857151953356e-03       1.808164090628e+03 
       5.984169885225e-03       1.833030233129e+03 
       6.111345035882e-03       1.857442744007e+03 
       6.238668803584e-03       1.881404525722e+03 
       6.366133235544e-03       1.904919257370e+03 
       6.493730971162e-03       1.927990232890e+03 
       6.621455190961e-03       1.950621221615e+03 
       6.749299570581e-03       1.972816071953e+03 
       6.877258239294e-03       1.994578600541e+03 
       7.005325742540e-03       2.015913148915e+03 
       7.133497008053e-03       2.036823220572e+03 
       7.261767315195e-03       2.057313477825e+03 
       7.390132267161e-03       2.077387826562e+03 
       7.518587765755e-03       2.097050583685e+03 
       7.647129988473e-03       2.116305830736e+03 
       7.775755367654e-03       2.135157978015e+03 
       7.904460571497e-03       2.153610844411e+03 
       8.033242486749e-03       2.171669055952e+03 
       8.162098202912e-03       2.189336545807e+03 
       8.291024997798e-03       2.206617766738e+03 
       8.420020324334e-03       2.223516854800e+03 
       8.549081798468e-03       2.240038263350e+03 
       8.678207188090e-03       2.256185792051e+03 
       8.807394402862e-03       2.271964685100e+03 
       8.936641484887e-03       2.287378224137e+03 
       9.065946600127e-03       2.302430732445e+03 
       9.195308030502e-03       2.317125944775e+03 
       9.324724166632e-03       2.331468473507e+03 
       9.454193501127e-03       2.345461892205e+03 
       9.583714622415e-03       2.359110292222e+03 
       9.713286209034e-03       2.372417582927e+03 
       9.842907024368e-03       2.385387806947e+03 
       9.972575911775e-03       2.398024749875e+03 
       1.010229179008e-02       2.410332434377e+03 
       1.023205364942e-02       2.422314576440e+03 
       1.036186054734e-02       2.433974936092e+03 
       1.049171160528e-02       2.445317463127e+03 
       1.062160600519e-02       2.456346014839e+03 
       1.075154298651e-02       2.467064074605e+03 
       1.088152184325e-02       2.477475224047e+03 
       1.101154192140e-02       2.487583443300e+03 
       1.114160261642e-02       2.497392136912e+03 
       1.127170337097e-02       2.506904740811e+03 
       1.140184367278e-02       2.516124816150e+03 
       1.153202305267e-02       2.525055856217e+03 
       1.166224108271e-02       2.533701304115e+03 
       1.179249737450e-02       2.542064514797e+03 
       1.192279157760e-02       2.550148962000e+03 
       1.205312337805e-02       2.557957955572e+03 
       1.218349249695e-02       2.565494976820e+03 
       1.231389868924e-02       2.572762937358e+03 
       1.244434174248e-02       2.579765387588e+03 
       1.257482147576e-02       2.586505578944e+03 
       1.270533773865e-02       2.592986465669e+03 
       1.283589041029e-02       2.599211242910e+03 
       1.296647939848e-02       2.605183269859e+03 
       1.309710463884e-02       2.610905654409e+03 
       1.322776609411e-02       2.616381511543e+03 
       1.335846375341e-02       2.621613947260e+03 
       1.348919763162e-02       2.626605916406e+03 
       1.361996776874e-02       2.631360224315e+03 
       1.375077422943e-02       2.635879974395e+03 
       1.388161710239e-02       2.640167978779e+03 
       1.401249650001e-02       2.644227060799e+03 
       1.414341255790e-02       2.648060172834e+03 
       1.427436543450e-02       2.651670040990e+03 
       1.440535531078e-02       2.655059587037e+03 
       1.453638238989e-02       2.658231896147e+03 
       1.466744689690e-02       2.661189550421e+03 
       1.477104874446e-02       2.663376660575e+03 
       1.479854907856e-02       2.663935070178e+03 
       1.492968920309e-02       2.666471442790e+03 
       1.506086755997e-02       2.668801378394e+03 
       1.519208445982e-02       2.670927640125e+03 
       1.532334023423e-02       2.672852810826e+03 
       1.545463523567e-02       2.674579548443e+03 
       1.558596983742e-02       2.676110763193e+03 
       1.571734443351e-02       2.677448460781e+03 
       1.584875943864e-02       2.678595440236e+03 
       1.598021528823e-02       2.679554231151e+03 
       1.611171243841e-02       2.680327428605e+03 
       1.624325136600e-02       2.680917501712e+03 
       1.637483256862e-02       2.681326953913e+03 
       1.650645656475e-02       2.681558249263e+03 
       1.663812389377e-02       2.681613813879e+03 
       1.676983511612e-02       2.681496187193e+03 
       1.690159081340e-02       2.681207692349e+03 
       1.703339158850e-02       2.680750756033e+03 
       1.716523806580e-02       2.680127761144e+03 
       1.729713089131e-02       2.679341064576e+03 
       1.742907073289e-02       2.678393069413e+03 
       1.756105828043e-02       2.677285944782e+03 
       1.769309424612e-02       2.676022412263e+03 
       1.782517936467e-02       2.674604393548e+03 
       1.795731439360e-02       2.673034240228e+03 
       1.808950011346e-02       2.671314295331e+03 
       1.822173732820e-02       2.669446760731e+03 
       1.835402686544e-02       2.667433901142e+03 
       1.848636957681e-02       2.665277834862e+03 
       1.861876633828e-02       2.662980734118e+03 
       1.875121805057e-02       2.660544748078e+03 
       1.888372563948e-02       2.657971762012e+03 
       1.901629005631e-02       2.655264378474e+03 
       1.914891227827e-02       2.652424265706e+03 
       1.928159330892e-02       2.649453562554e+03 
       1.941433417860e-02       2.646354370877e+03 
       1.954713594494e-02       2.643128724763e+03 
       1.967999969327e-02       2.639778694853e+03 
       1.981292653722e-02       2.636306312713e+03 
       1.994591761915e-02       2.632713634505e+03 
       2.007897411078e-02       2.629002622259e+03 
       2.021209721365e-02       2.625175273542e+03 
       2.034528815980e-02       2.621233572480e+03 
       2.047854821230e-02       2.617179795824e+03 
       2.061187866591e-02       2.613015546355e+03 
       2.074528084769e-02       2.608742928141e+03 
       2.087875611771e-02       2.604363862611e+03 
       2.101230586967e-02       2.599880305283e+03 
       2.114593153167e-02       2.595294198468e+03 
       2.127963456691e-02       2.590607317844e+03 
       2.141341647442e-02       2.585821611498e+03 
       2.154727878990e-02       2.580938886939e+03 
       2.168122308647e-02       2.575960702875e+03 
       2.181525097552e-02       2.570889027659e+03 
       2.194936410754e-02       2.565737796153e+03 
       2.208356417305e-02       2.560484607404e+03 
       2.221785290346e-02       2.555141465888e+03 
       2.235223207203e-02       2.549711621329e+03 
       2.248670349484e-02       2.544196787527e+03 
       2.262126903175e-02       2.538598660889e+03 
       2.275593058750e-02       2.532918922039e+03 
       2.289069011270e-02       2.527159236007e+03 
       2.302554960494e-02       2.521321318580e+03 
       2.316051110994e-02       2.515406670014e+03 
       2.329557672270e-02       2.509416975375e+03 
       2.343074858870e-02       2.503353837105e+03 
       2.356602890510e-02       2.497218841892e+03 
       2.370141992209e-02       2.491013560849e+03 
       2.383692394413e-02       2.484739549405e+03 
       2.397254333135e-02       2.478398347184e+03 
       2.410828050095e-02       2.471991478354e+03 
       2.424413792862e-02       2.465520451214e+03 
       2.438011815003e-02       2.458986744457e+03 
       2.451622376240e-02       2.452391863130e+03 
       2.465245742606e-02       2.445737289078e+03 
       2.478882186609e-02       2.439024398104e+03 
       2.492531987403e-02       2.432254718432e+03 
       2.506195430959e-02       2.425429536792e+03 
       2.519872810250e-02       2.418550315361e+03 
       2.533564425432e-02       2.411618436692e+03 
       2.547270584043e-02       2.404635267535e+03 
       2.560991601194e-02       2.397602158830e+03 
       2.574727799782e-02       2.390520445748e+03 
       2.588479510695e-02       2.383391447747e+03 
       2.602247073037e-02       2.376216468292e+03 
       2.616030834354e-02       2.368996795235e+03 
       2.629831150865e-02       2.361733738068e+03 
       2.643648387709e-02       2.354428477161e+03 
       2.657482919193e-02       2.347082290694e+03 
       2.671335129052e-02       2.339696402987e+03 
       2.685205410720e-02       2.332272022546e+03 
       2.699094167605e-02       2.324810341904e+03 
       2.713001813381e-02       2.317312537694e+03 
       2.726928772282e-02       2.309779769328e+03 
       2.740875479412e-02       2.302213187120e+03 
       2.754842381067e-02       2.294613931646e+03 
       2.768829935065e-02       2.286983081760e+03 
       2.782838611092e-02       2.279321805011e+03 
       2.796868891053e-02       2.271631077950e+03 
       2.810921269449e-02       2.263912018710e+03 
       2.824996253754e-02       2.256165690875e+03 
       2.839094364817e-02       2.248393098720e+03 
       2.853216137273e-02       2.240595273194e+03 
       2.867362119971e-02       2.232773229428e+03 
       2.881532876423e-02       2.224927934706e+03 
       2.895728985260e-02       2.217060354851e+03 
       2.909951040719e-02       2.209171451486e+03 
       2.924199653137e-02       2.201262170898e+03 
       2.938475449474e-02       2.193333416497e+03 
       2.952779073850e-02       2.185386106643e+03 
       2.967111188107e-02       2.177421121929e+03 
       2.981472472395e-02       2.169439345786e+03 
       2.995863625780e-02       2.161441664017e+03 
       3.010285366874e-02       2.153428841950e+03 
       3.024738434498e-02       2.145401745380e+03 
       3.039223588370e-02       2.137361183192e+03 
       3.053741609818e-02       2.129307947828e+03 
       3.068293302528e-02       2.121242816159e+03 
       3.082879493325e-02       2.113166548441e+03 
       3.097501032985e-02       2.105079888892e+03 
       3.112158797081e-02       2.096983565600e+03 
       3.126853686872e-02       2.088878290314e+03 
       3.141586630228e-02       2.080764758671e+03 
       3.156358582593e-02       2.072643650465e+03 
       3.171170528003e-02       2.064515627876e+03 
       3.186023480136e-02       2.056381338069e+03 
       3.200918483421e-02       2.048241411457e+03 
       3.215856614196e-02       2.040096462044e+03 
       3.230838981918e-02       2.031947087417e+03 
       3.245866730435e-02       2.023793868710e+03 
       3.260941039315e-02       2.015637368219e+03 
       3.276063125237e-02       2.007478138674e+03 
       3.291234243462e-02       1.999316709201e+03 
       3.306455689362e-02       1.991153594128e+03 
       3.321728800031e-02       1.982989292359e+03 
       3.337054955983e-02       1.974824368809e+03 
       3.352435582928e-02       1.966659128704e+03 
       3.367872153641e-02       1.958494085982e+03 
       3.383366189933e-02       1.950329677903e+03 
       3.398919264716e-02       1.942166319940e+03 
       3.414533004191e-02       1.934004406966e+03 
       3.430209090139e-02       1.925844323106e+03 
       3.445949262345e-02       1.917686418096e+03 
       3.461755321153e-02       1.909531067487e+03 
       3.477629130157e-02       1.901378548084e+03 
       3.493572619053e-02       1.893229174820e+03 
       3.509587786643e-02       1.885083298729e+03 
       3.525676704010e-02       1.876941120322e+03 
       3.541841517890e-02       1.868802920440e+03 
       3.558084454221e-02       1.860668933904e+03 
       3.574407821920e-02       1.852539377000e+03 
       3.590814016877e-02       1.844414440741e+03 
       3.607305526189e-02       1.836294330305e+03 
       3.623884932663e-02       1.828179168161e+03 
       3.640554919588e-02       1.820069107964e+03 
       3.657318275811e-02       1.811964268447e+03 
       3.674177901140e-02       1.803864741795e+03 
       3.691136812084e-02       1.795770617700e+03 
       3.708198147979e-02       1.787681991452e+03 
       3.725365177508e-02       1.779598808049e+03 
       3.742641305666e-02       1.771521125607e+03 
       3.760030081189e-02       1.763448935165e+03 
       3.777535204497e-02       1.755382204684e+03 
       3.795160536190e-02       1.747320878637e+03 
       3.812910106140e-02       1.739264877685e+03 
       3.830788123232e-02       1.731214097887e+03 
       3.848798985817e-02       1.723168410368e+03 
       3.866947292928e-02       1.715127660084e+03 
       3.885237856329e-02       1.707091665408e+03 
       3.903675713484e-02       1.699060203194e+03 
       3.922266141511e-02       1.691033117763e+03 
       3.941014672230e-02       1.683010021244e+03 
       3.959927108396e-02       1.674990670478e+03 
       3.979009541233e-02       1.666974737174e+03 
       3.998268369403e-02       1.658961860364e+03 
       4.017710319537e-02       1.650951645284e+03 
       4.037342468500e-02       1.642943661939e+03 
       4.057172267548e-02       1.634937443439e+03 
       4.077207568593e-02       1.626932484456e+03 
       4.097456652783e-02       1.618928239438e+03 
       4.117928261640e-02       1.610924121131e+03 
       4.138631631058e-02       1.602919497189e+03 
       4.159576528441e-02       1.594913744788e+03 
       4.180773293368e-02       1.586906025612e+03 
       4.202232882163e-02       1.578895615078e+03 
       4.223966916837e-02       1.570881678944e+03 
       4.245987738916e-02       1.562863328296e+03 
       4.268308468743e-02       1.554839618260e+03 
       4.290943070936e-02       1.546809498524e+03 
       4.313906426756e-02       1.538771904403e+03 
       4.337214414284e-02       1.530725655976e+03 
       4.360883997416e-02       1.522669512555e+03 
       4.384933324848e-02       1.514602142203e+03 
       4.409381840412e-02       1.506522115105e+03 
       4.434250406322e-02       1.498427938626e+03 
       4.459561441166e-02       1.490317919458e+03 
       4.485339074774e-02       1.482190318265e+03 
       4.511609322439e-02       1.474043300941e+03 
       4.538400281429e-02       1.465874778597e+03 
       4.565742353217e-02       1.457682597513e+03 
       4.593668495489e-02       1.449464407792e+03 
       4.622214508755e-02       1.441217671730e+03 
       4.651419363264e-02       1.432939643068e+03 
       4.681325573075e-02       1.424627344284e+03 
       4.711979625447e-02       1.416277538920e+03 
       4.743432475417e-02       1.407886700629e+03 
       4.775740117425e-02       1.399451015792e+03 
       4.808964248435e-02       1.390966181918e+03 
       4.843173040083e-02       1.382427587788e+03 
       4.878442041346e-02       1.373830121572e+03 
       4.914855238086e-02       1.365168078172e+03 
       4.952506302041e-02       1.356435158746e+03 
       4.991500069540e-02       1.347624240967e+03 
       5.031954300152e-02       1.338727381868e+03 
       5.074001777921e-02       1.329735573204e+03 
       5.117792833809e-02       1.320638555692e+03 
       5.163498388266e-02       1.311424599204e+03 
       5.211313638716e-02       1.302080049515e+03 
       5.261462549651e-02       1.292589112443e+03 
       5.314203344565e-02       1.282933153952e+03 
       5.369835250859e-02       1.273090064815e+03 
       5.428706812257e-02       1.263033333719e+03 
       5.491226158046e-02       1.252730776464e+03 
       5.557873700401e-02       1.242142747327e+03 
       5.629217807931e-02       1.231219977691e+03 
       5.705934045527e-02       1.219900288317e+03 
       5.788828512892e-02       1.208113514709e+03 
       5.878865525258e-02       1.195737469609e+03 
       5.977199105583e-02       1.182645984696e+03 
       6.085206034913e-02       1.168658891009e+03 
