# Matter power spectrum P(k) at redshift z=0
# for k=1.04317e-05 to 1.72096 h/Mpc,
# number of wavenumbers equal to 568
#    1:k (h/Mpc)              2:P (Mpc/h)^3        
       1.043166462095e-05       5.272389518481e+01 
       2.330077238230e-05       1.142146960047e+02 
       3.621503077319e-05       1.745562036121e+02 
       4.920912262717e-05       2.344264904291e+02 
       6.231830318522e-05       2.942069024872e+02 
       7.557871388114e-05       3.541805397071e+02 
       8.902770614022e-05       4.145877503619e+02 
       1.027041794903e-04       4.756487736013e+02 
       1.166489383177e-04       5.375753009674e+02 
       1.309050716342e-04       6.005774089957e+02 
       1.455183602265e-04       6.648683453617e+02 
       1.605377155032e-04       7.306682126402e+02 
       1.760156541762e-04       7.982070837515e+02 
       1.920088125502e-04       8.677278302651e+02 
       2.085785035404e-04       9.394888110069e+02 
       2.257913184778e-04       1.013766528632e+03 
       2.437197741095e-04       1.090858262268e+03 
       2.624430027585e-04       1.171084735034e+03 
       2.820474800937e-04       1.254792775919e+03 
       3.026277800494e-04       1.342357925588e+03 
       3.242873397583e-04       1.434186924871e+03 
       3.471392085133e-04       1.530719955858e+03 
       3.713067433756e-04       1.632432460379e+03 
       3.969241998582e-04       1.739836308336e+03 
       4.241371491275e-04       1.853480030120e+03 
       4.531026339205e-04       1.973947723253e+03 
       4.839889551804e-04       2.101856206744e+03 
       5.169749627830e-04       2.237849938722e+03 
       5.522487106953e-04       2.382593127646e+03 
       5.900053352703e-04       2.536758619673e+03 
       6.304440324236e-04       2.701013134471e+03 
       6.737640530613e-04       2.875998688816e+03 
       7.201597127646e-04       3.062310465441e+03 
       7.698145233039e-04       3.260471786042e+03 
       8.228946936799e-04       3.470907444613e+03 
       8.795423993381e-04       3.693917269878e+03 
       9.398693506573e-04       3.929652216486e+03 
       1.003951269313e-03       4.178095572901e+03 
       1.071823870088e-03       4.439051552939e+03 
       1.143480828442e-03       4.712143116452e+03 
       1.218873999721e-03       4.996819790793e+03 
       1.297915882265e-03       5.292375059713e+03 
       1.380484041625e-03       5.597971344439e+03 
       1.466426995522e-03       5.912670474177e+03 
       1.555570940290e-03       6.235466373973e+03 
       1.647726690954e-03       6.565316556695e+03 
       1.742696291898e-03       6.901171828897e+03 
       1.840278897995e-03       7.242000321891e+03 
       1.940275687868e-03       7.586807821379e+03 
       2.042493719488e-03       7.934634098394e+03 
       2.146748754492e-03       8.284614106079e+03 
       2.252867154784e-03       8.635939572704e+03 
       2.360686996123e-03       8.987869932115e+03 
       2.470058556100e-03       9.339735548378e+03 
       2.580844327351e-03       9.690934302224e+03 
       2.692918689248e-03       1.004093006522e+04 
       2.806167348924e-03       1.038924601984e+04 
       2.920486639467e-03       1.073546134337e+04 
       3.035782742117e-03       1.107920659111e+04 
       3.151970881222e-03       1.142015741144e+04 
       3.268974526146e-03       1.175803216926e+04 
       3.386724622849e-03       1.209258553881e+04 
       3.505158869324e-03       1.242360451141e+04 
       3.624221042727e-03       1.275090597237e+04 
       3.743860381623e-03       1.307433508155e+04 
       3.864031023680e-03       1.339375663077e+04 
       3.984691497183e-03       1.370906002745e+04 
       4.105804263469e-03       1.402014938000e+04 
       4.227335306694e-03       1.432695009680e+04 
       4.349253767041e-03       1.462939645194e+04 
       4.471531613399e-03       1.492743933337e+04 
       4.594143351650e-03       1.522104119235e+04 
       4.717065764888e-03       1.551016228433e+04 
       4.840277682189e-03       1.579476137142e+04 
       4.963759772787e-03       1.607489837073e+04 
       5.087494362834e-03       1.635050151198e+04 
       5.211465272206e-03       1.662159644658e+04 
       5.335657669055e-03       1.688825485779e+04 
       5.460057940102e-03       1.715043053999e+04 
       5.584653574846e-03       1.740810623056e+04 
       5.709433062112e-03       1.766054410672e+04 
       5.834385797525e-03       1.790933432927e+04 
       5.959502000651e-03       1.815368571369e+04 
       6.084772640732e-03       1.839358955441e+04 
       6.210189370031e-03       1.862927060048e+04 
       6.335744463937e-03       1.886051804148e+04 
       6.461430767082e-03       1.908772408371e+04 
       6.587241644807e-03       1.931048330262e+04 
       6.713170939389e-03       1.952929195556e+04 
       6.839212930516e-03       1.974336499485e+04 
       6.965362299555e-03       1.995365880895e+04 
       7.091614097202e-03       2.015980195935e+04 
       7.217963714172e-03       2.036184149184e+04 
       7.344406854600e-03       2.055972297265e+04 
       7.470939511876e-03       2.075349690782e+04 
       7.597557946671e-03       2.094356753556e+04 
       7.724258666928e-03       2.112952741948e+04 
       7.851038409620e-03       2.131243563334e+04 
       7.977894124111e-03       2.149078063002e+04 
       8.104822956945e-03       2.166534953566e+04 
       8.231822237945e-03       2.183614064633e+04 
       8.358889467480e-03       2.200324528268e+04 
       8.486022304807e-03       2.216667256969e+04 
       8.613218557363e-03       2.232643306338e+04 
       8.740476170950e-03       2.248260928339e+04 
       8.867793220701e-03       2.263521378766e+04 
       8.995167902779e-03       2.278427051447e+04 
       9.122598526730e-03       2.292983522036e+04 
       9.250083508442e-03       2.307199902144e+04 
       9.377621363646e-03       2.321077367415e+04 
       9.505210701925e-03       2.334612205032e+04 
       9.632850221173e-03       2.347818079916e+04 
       9.760538702479e-03       2.360694512641e+04 
       9.888275005393e-03       2.373244835909e+04 
       1.001605806355e-02       2.385472442786e+04 
       1.014388688060e-02       2.397383080932e+04 
       1.027176052647e-02       2.408976916242e+04 
       1.039967813386e-02       2.420261602944e+04 
       1.052763889500e-02       2.431240189197e+04 
       1.065564205869e-02       2.441919158151e+04 
       1.078368692745e-02       2.452282685169e+04 
       1.091177285501e-02       2.462366670554e+04 
       1.103989924382e-02       2.472139941421e+04 
       1.116806554289e-02       2.481629533291e+04 
       1.129627124564e-02       2.490833786019e+04 
       1.142451588803e-02       2.499764093478e+04 
       1.155279904672e-02       2.508395445896e+04 
       1.168112033742e-02       2.516758280489e+04 
       1.180947941330e-02       2.524850419770e+04 
       1.193787596360e-02       2.532670759808e+04 
       1.206630971223e-02       2.540218848843e+04 
       1.219478041653e-02       2.547517876033e+04 
       1.232328786613e-02       2.554533885877e+04 
       1.245183188184e-02       2.561299234759e+04 
       1.258041231467e-02       2.567816580742e+04 
       1.270902904488e-02       2.574081797357e+04 
       1.283768198112e-02       2.580089327422e+04 
       1.296637105963e-02       2.585860699521e+04 
       1.309509624349e-02       2.591388843324e+04 
       1.322385752196e-02       2.596669784440e+04 
       1.335265490981e-02       2.601723368096e+04 
       1.348148844677e-02       2.606546034531e+04 
       1.361035819698e-02       2.611125653284e+04 
       1.373926424849e-02       2.615481076679e+04 
       1.386820671283e-02       2.619615279264e+04 
       1.399718572459e-02       2.623522284074e+04 
       1.412620144103e-02       2.627198964179e+04 
       1.425525404179e-02       2.630674640683e+04 
       1.438434372852e-02       2.633920351324e+04 
       1.451347072469e-02       2.636963297610e+04 
       1.464263527528e-02       2.639804832804e+04 
       1.477183764662e-02       2.642440121106e+04 
       1.490107812617e-02       2.644757670729e+04 
       1.503035702240e-02       2.647083213711e+04 
       1.515967466464e-02       2.649097978796e+04 
       1.528903140300e-02       2.650928656866e+04 
       1.541842760827e-02       2.652480646308e+04 
       1.554786367184e-02       2.654007991481e+04 
       1.567734000575e-02       2.655265926497e+04 
       1.580685704258e-02       2.656330595691e+04 
       1.593641523554e-02       2.657217447862e+04 
       1.606601505844e-02       2.657834830322e+04 
       1.619565700578e-02       2.658351419784e+04 
       1.632534159281e-02       2.658710760017e+04 
       1.645506935559e-02       2.658887675338e+04 
       1.658484085116e-02       2.658894785972e+04 
       1.671465665759e-02       2.658726262576e+04 
       1.684451737419e-02       2.658490492940e+04 
       1.697442362160e-02       2.657890326263e+04 
       1.710437604207e-02       2.657337246593e+04 
       1.723437529953e-02       2.656398621673e+04 
       1.736442207992e-02       2.655424463660e+04 
       1.749451709133e-02       2.654402211478e+04 
       1.762466106431e-02       2.652986252909e+04 
       1.775485475209e-02       2.651695340075e+04 
       1.788509893087e-02       2.650021072711e+04 
       1.801539440014e-02       2.648322561975e+04 
       1.814574198297e-02       2.646440428937e+04 
       1.827614252633e-02       2.644422247260e+04 
       1.840659690145e-02       2.642257007419e+04 
       1.853710600421e-02       2.639964063090e+04 
       1.866767075545e-02       2.637527641634e+04 
       1.879829210145e-02       2.634959492368e+04 
       1.892897101426e-02       2.632272875511e+04 
       1.905970849221e-02       2.629446366725e+04 
       1.919050556031e-02       2.626570180636e+04 
       1.932136327071e-02       2.623393209039e+04 
       1.945228270324e-02       2.620301877252e+04 
       1.958326496583e-02       2.616966979655e+04 
       1.971431119512e-02       2.613523619538e+04 
       1.984542255693e-02       2.609918419513e+04 
       1.997660024686e-02       2.606296889721e+04 
       2.010784549084e-02       2.602518230931e+04 
       2.023915954577e-02       2.598512651561e+04 
       2.037054370009e-02       2.594510865876e+04 
       2.050199927445e-02       2.590474959802e+04 
       2.063352762238e-02       2.586161783619e+04 
       2.076513013094e-02       2.581839904607e+04 
       2.089680822146e-02       2.577409400374e+04 
       2.102856335025e-02       2.572976203932e+04 
       2.116039700936e-02       2.568341880715e+04 
       2.129231072734e-02       2.563521372097e+04 
       2.142430607008e-02       2.558688451312e+04 
       2.155638464157e-02       2.553797861551e+04 
       2.168854808485e-02       2.548781649004e+04 
       2.182079808277e-02       2.543685140761e+04 
       2.195313635902e-02       2.538531131547e+04 
       2.208556467895e-02       2.533214726906e+04 
       2.221808485065e-02       2.527877329570e+04 
       2.235069872583e-02       2.522432193221e+04 
       2.248340820095e-02       2.516930947694e+04 
       2.261621521819e-02       2.511324827064e+04 
       2.274912176661e-02       2.505645969941e+04 
       2.288212988324e-02       2.499949924777e+04 
       2.301524165425e-02       2.494054687594e+04 
       2.314845921614e-02       2.488133646487e+04 
       2.328178475699e-02       2.482177801020e+04 
       2.341522051772e-02       2.476143212714e+04 
       2.354876879341e-02       2.470067042960e+04 
       2.368243193466e-02       2.463812238748e+04 
       2.381621234897e-02       2.457641860776e+04 
       2.395011250221e-02       2.451333417715e+04 
       2.408413492010e-02       2.444952094167e+04 
       2.421828218974e-02       2.438445424746e+04 
       2.435255696118e-02       2.432003577583e+04 
       2.448696194910e-02       2.425415282465e+04 
       2.462149993448e-02       2.418816457736e+04 
       2.475617376635e-02       2.412140168475e+04 
       2.489098636356e-02       2.405396802107e+04 
       2.502594071671e-02       2.398680649147e+04 
       2.516103989001e-02       2.391833775482e+04 
       2.529628702330e-02       2.384964412551e+04 
       2.543168533412e-02       2.378039881741e+04 
       2.556723811978e-02       2.371047137327e+04 
       2.570294875963e-02       2.364001672557e+04 
       2.583882071725e-02       2.356972598913e+04 
       2.597485754286e-02       2.349890338018e+04 
       2.611106287574e-02       2.342675933357e+04 
       2.624744044670e-02       2.335526762833e+04 
       2.638399408072e-02       2.328296766106e+04 
       2.652072769964e-02       2.321025969144e+04 
       2.665764532492e-02       2.313662057310e+04 
       2.679475108056e-02       2.306324149522e+04 
       2.693204919604e-02       2.298989216138e+04 
       2.706954400948e-02       2.291549402607e+04 
       2.720723997078e-02       2.284121418806e+04 
       2.734514164498e-02       2.276592882692e+04 
       2.748325371570e-02       2.269080361246e+04 
       2.762158098871e-02       2.261546645315e+04 
       2.776012839565e-02       2.253983589331e+04 
       2.789890099783e-02       2.246396870008e+04 
       2.803790399026e-02       2.238750806065e+04 
       2.817714270581e-02       2.231095756509e+04 
       2.831662261944e-02       2.223406574115e+04 
       2.845634935272e-02       2.215724599630e+04 
       2.859632867845e-02       2.207983407124e+04 
       2.873656652549e-02       2.200238029120e+04 
       2.887706898375e-02       2.192464780915e+04 
       2.901784230943e-02       2.184680180702e+04 
       2.915889293040e-02       2.176871264605e+04 
       2.930022745188e-02       2.169047924837e+04 
       2.944185266227e-02       2.161233096468e+04 
       2.958377553928e-02       2.153375355685e+04 
       2.972600325630e-02       2.145471445575e+04 
       2.986854318899e-02       2.137596578237e+04 
       3.001140292223e-02       2.129677770345e+04 
       3.015459025727e-02       2.121755231532e+04 
       3.029811321928e-02       2.113856707307e+04 
       3.044198006518e-02       2.105912821701e+04 
       3.058619929178e-02       2.097946161592e+04 
       3.073077964433e-02       2.089959659156e+04 
       3.087573012544e-02       2.082008889450e+04 
       3.102106000438e-02       2.074033065186e+04 
       3.116677882680e-02       2.066029748061e+04 
       3.131289642492e-02       2.058036211869e+04 
       3.145942292816e-02       2.050007536539e+04 
       3.160636877427e-02       2.042014418876e+04 
       3.175374472098e-02       2.033983361732e+04 
       3.190156185825e-02       2.025944293130e+04 
       3.204983162098e-02       2.017925672739e+04 
       3.219856580249e-02       2.009902503261e+04 
       3.234777656853e-02       2.001862921011e+04 
       3.249747647202e-02       1.993821823506e+04 
       3.264767846860e-02       1.985763082914e+04 
       3.279839593277e-02       1.977742855576e+04 
       3.294964267508e-02       1.969689939757e+04 
       3.310143296000e-02       1.961640470605e+04 
       3.325378152482e-02       1.953583030991e+04 
       3.340670359952e-02       1.945526628742e+04 
       3.356021492766e-02       1.937470185682e+04 
       3.371433178843e-02       1.929417766357e+04 
       3.386907101981e-02       1.921371508032e+04 
       3.402445004307e-02       1.913336346705e+04 
       3.418048688860e-02       1.905294936739e+04 
       3.433720022309e-02       1.897259585587e+04 
       3.449460937842e-02       1.889218479668e+04 
       3.465273438196e-02       1.881178977947e+04 
       3.481159598882e-02       1.873111039248e+04 
       3.497121571585e-02       1.865078038244e+04 
       3.513161587771e-02       1.857046184961e+04 
       3.529281962497e-02       1.849022823219e+04 
       3.545485098471e-02       1.840991031381e+04 
       3.561773490335e-02       1.832974134737e+04 
       3.578149729232e-02       1.824984874717e+04 
       3.594616507646e-02       1.816968182659e+04 
       3.611176624553e-02       1.808931851699e+04 
       3.627832990897e-02       1.800926764757e+04 
       3.644588635427e-02       1.792944989889e+04 
       3.661446710912e-02       1.784958877331e+04 
       3.678410500766e-02       1.776941040743e+04 
       3.695483426130e-02       1.768978360168e+04 
       3.712669053419e-02       1.760967647351e+04 
       3.729971102408e-02       1.752995896844e+04 
       3.747393454874e-02       1.745036498233e+04 
       3.764940163852e-02       1.737044412536e+04 
       3.782615463558e-02       1.729074980522e+04 
       3.800423780036e-02       1.721112022373e+04 
       3.818369742596e-02       1.713151447714e+04 
       3.836458196100e-02       1.705201170380e+04 
       3.854694214195e-02       1.697254123112e+04 
       3.873083113560e-02       1.689311303368e+04 
       3.891630469276e-02       1.681355471240e+04 
       3.910342131413e-02       1.673415905884e+04 
       3.929224242965e-02       1.665475124948e+04 
       3.948283259248e-02       1.657508374019e+04 
       3.967525968927e-02       1.649568956541e+04 
       3.986959516809e-02       1.641628323097e+04 
       4.006591428617e-02       1.633686738734e+04 
       4.026429637914e-02       1.625767963078e+04 
       4.046482515434e-02       1.617815536296e+04 
       4.066758901065e-02       1.609884266274e+04 
       4.087268138776e-02       1.601938041309e+04 
       4.108020114816e-02       1.593991533464e+04 
       4.129025299554e-02       1.586020400845e+04 
       4.150294793387e-02       1.578057189192e+04 
       4.171840377179e-02       1.570122338055e+04 
       4.193674567789e-02       1.562130263270e+04 
       4.215810679292e-02       1.554179651082e+04 
       4.238262890613e-02       1.546191839075e+04 
       4.261046320372e-02       1.538170420865e+04 
       4.284177109881e-02       1.530193159364e+04 
       4.307672515356e-02       1.522175032429e+04 
       4.331551010583e-02       1.514148052272e+04 
       4.355832401477e-02       1.506104436275e+04 
       4.380537954183e-02       1.498017756726e+04 
       4.405690538660e-02       1.489928539842e+04 
       4.431314790016e-02       1.481830688529e+04 
       4.457437290219e-02       1.473739707205e+04 
       4.484086773318e-02       1.465576655782e+04 
       4.511294357816e-02       1.457407517518e+04 
       4.539093810547e-02       1.449200827722e+04 
       4.567521847194e-02       1.440947912657e+04 
       4.596618475584e-02       1.432694107679e+04 
       4.626427389087e-02       1.424384563012e+04 
       4.656996418917e-02       1.416053941020e+04 
       4.688378055955e-02       1.407643827722e+04 
       4.720630054898e-02       1.399190915967e+04 
       4.753816136368e-02       1.390747894401e+04 
       4.788006805968e-02       1.382144505752e+04 
       4.823280313632e-02       1.373541291982e+04 
       4.859723781972e-02       1.364831606786e+04 
       4.897434539083e-02       1.356098001385e+04 
       4.936521699902e-02       1.347273078158e+04 
       4.977108051007e-02       1.338290083855e+04 
       5.019332307649e-02       1.329208151558e+04 
       5.063351829365e-02       1.320047161267e+04 
       5.109345903010e-02       1.310741094319e+04 
       5.157519730633e-02       1.301377589323e+04 
       5.208109295874e-02       1.291762622106e+04 
       5.261387328159e-02       1.282010108081e+04 
       5.317670640405e-02       1.272068034804e+04 
       5.377329183929e-02       1.261858481807e+04 
       5.440797242159e-02       1.251360105275e+04 
       5.508587265383e-02       1.240568779536e+04 
       5.581306913350e-02       1.229421398747e+04 
       5.659679878166e-02       1.217853472732e+04 
       5.744570916517e-02       1.205723190506e+04 
       5.837015049500e-02       1.193009567888e+04 
       5.938249754006e-02       1.179398395326e+04 
       6.049746581378e-02       1.164871952062e+04 
       6.173234069272e-02       1.149028512656e+04 
