# dimensionless total [l(l+1)/2pi] C_l's
# for l=2 to 2500, i.e. number of multipoles equal to 2499
#
# -> if you prefer output in CAMB/HealPix/LensPix units/order, set 'format' to 'camb' in input file
# -> if you don't want to see such a header, set 'headers' to 'no' in input file
# -> for CMB lensing (phi), these are C_l^phi-phi for the lensing potential.
#    Remember the conversion factors:
#    C_l^dd (deflection) = l(l+1) C_l^phi-phi
#    C_l^gg (shear/convergence) = 1/4 (l(l+1))^2 C_l^phi-phi
#
# 1:l     2:TT                     3:EE                     4:TE                     5:BB                     6:phiphi                 7:TPhi                   8:Ephi               
    2       1.486743854730e-10       4.983937861587e-15       3.985288083899e-13       0.000000000000e+00       8.804050566948e-09       4.837372391938e-10      -2.089599073322e-12 
    3       1.404168464148e-10       6.753686983175e-15       4.568487364354e-13       0.000000000000e+00       5.404329573142e-09       3.435814064699e-10      -1.635183306692e-12 
    4       1.325835393014e-10       6.206749214452e-15       4.351974884650e-13       0.000000000000e+00       3.760256966421e-09       2.604045614928e-10      -1.120668182115e-12 
    5       1.266530569837e-10       4.413157674258e-15       3.770781860093e-13       0.000000000000e+00       2.808078432797e-09       2.057581452244e-10      -6.704235454682e-13 
    6       1.225222087816e-10       2.599903692050e-15       3.082753901617e-13       0.000000000000e+00       2.194127143549e-09       1.674237124151e-10      -3.218777782016e-13 
    7       1.197921447796e-10       1.407859304421e-15       2.443591742146e-13       0.000000000000e+00       1.770338234943e-09       1.392867333467e-10      -8.279368071411e-14 
    8       1.181396888281e-10       8.509393103924e-16       1.928124644628e-13       0.000000000000e+00       1.462812274479e-09       1.179360981651e-10       5.614583445624e-14 
    9       1.172941124093e-10       6.542930570952e-16       1.561396082979e-13       0.000000000000e+00       1.231109225821e-09       1.013237372818e-10       1.141656576166e-13 
   10       1.170265560832e-10       5.675413210520e-16       1.337932024859e-13       0.000000000000e+00       1.051606624516e-09       8.813636169444e-11       1.151958391927e-13 
   11       1.172399026644e-10       4.858269341945e-16       1.234006499364e-13       0.000000000000e+00       8.874208632044e-10       7.781990495568e-11       8.363039621809e-14 
   12       1.178049744169e-10       4.117886952197e-16       1.218245790023e-13       0.000000000000e+00       7.754049168280e-10       6.884313489893e-11       3.988589583218e-14 
   13       1.186434210943e-10       3.721069763305e-16       1.259585316027e-13       0.000000000000e+00       6.834519119980e-10       6.153198591179e-11      -5.991231943014e-16 
   14       1.196780923931e-10       3.710569000485e-16       1.332336384235e-13       0.000000000000e+00       6.069459797773e-10       5.514619903333e-11      -2.956275050794e-14 
   15       1.209142842049e-10       3.932303742484e-16       1.418568409058e-13       0.000000000000e+00       5.425482119181e-10       4.978185699058e-11      -4.362774589546e-14 
   16       1.223016215915e-10       4.251580677083e-16       1.506758227276e-13       0.000000000000e+00       4.877951176240e-10       4.518425216497e-11      -4.434238796782e-14 
   17       1.238113135589e-10       4.668090873657e-16       1.592116855972e-13       0.000000000000e+00       4.408260431703e-10       4.118270400318e-11      -3.589687198902e-14 
   18       1.254091278014e-10       5.271842324680e-16       1.676133694693e-13       0.000000000000e+00       4.000593292408e-10       3.764689161594e-11      -2.361602537595e-14 
   19       1.271067257640e-10       6.113485636855e-16       1.761297961428e-13       0.000000000000e+00       3.648473851884e-10       3.454853835133e-11      -1.143491906873e-14 
   20       1.288749701307e-10       7.215095621020e-16       1.850114860940e-13       0.000000000000e+00       3.338342140140e-10       3.181759838821e-11      -3.049530826486e-15 
   21       1.307232285895e-10       8.557428411938e-16       1.944353118774e-13       0.000000000000e+00       3.065329259490e-10       2.940769476757e-11       5.094572458806e-16 
   22       1.326390583108e-10       1.010314197522e-15       2.044818587222e-13       0.000000000000e+00       2.822903177607e-10       2.724110920306e-11      -4.965243113973e-16 
   23       1.346173915688e-10       1.185246985288e-15       2.149163672715e-13       0.000000000000e+00       2.607733629341e-10       2.529115558423e-11      -4.722949089869e-15 
   24       1.366359224429e-10       1.381399219005e-15       2.253265374082e-13       0.000000000000e+00       2.414850542921e-10       2.352670248660e-11      -1.014776955497e-14 
   25       1.387091893701e-10       1.598391676227e-15       2.353084889408e-13       0.000000000000e+00       2.241987168068e-10       2.194527520276e-11      -1.512666672046e-14 
   26       1.408435626017e-10       1.835493429474e-15       2.444407532750e-13       0.000000000000e+00       2.086016219506e-10       2.053391227987e-11      -1.815006977550e-14 
   27       1.430232872729e-10       2.093555318376e-15       2.524851250830e-13       0.000000000000e+00       1.945067416726e-10       1.925936232033e-11      -1.887343185588e-14 
   28       1.452178789052e-10       2.374084797924e-15       2.592821936746e-13       0.000000000000e+00       1.816711469319e-10       1.807583949003e-11      -1.747180447217e-14 
   29       1.474377844466e-10       2.679068102378e-15       2.648186536804e-13       0.000000000000e+00       1.700293737235e-10       1.698225592683e-11      -1.461090673333e-14 
   30       1.496956778584e-10       3.010861308074e-15       2.691574034754e-13       0.000000000000e+00       1.594565165697e-10       1.598374072630e-11      -1.131919414969e-14 
   31       1.519930885996e-10       3.371803005844e-15       2.723905376523e-13       0.000000000000e+00       1.497370283877e-10       1.507641719188e-11      -8.701978298993e-15 
   32       1.543321962172e-10       3.762983740679e-15       2.745716623303e-13       0.000000000000e+00       1.408207647348e-10       1.425146112398e-11      -7.094057977415e-15 
   33       1.567055634449e-10       4.185002376107e-15       2.757619408916e-13       0.000000000000e+00       1.326447054291e-10       1.349067664095e-11      -6.595381908016e-15 
   34       1.590990342128e-10       4.638372846954e-15       2.760090437256e-13       0.000000000000e+00       1.250944765944e-10       1.277210268111e-11      -7.202145858266e-15 
   35       1.615180245753e-10       5.123889635311e-15       2.752074090881e-13       0.000000000000e+00       1.181314780560e-10       1.209688994561e-11      -8.510868212659e-15 
   36       1.639686661090e-10       5.642376028002e-15       2.731869266387e-13       0.000000000000e+00       1.116999015898e-10       1.147098491095e-11      -9.895902448374e-15 
   37       1.664518724991e-10       6.194610282052e-15       2.697717496049e-13       0.000000000000e+00       1.057161019846e-10       1.089723712757e-11      -1.073396565592e-14 
   38       1.689696339586e-10       6.781421958382e-15       2.648636238707e-13       0.000000000000e+00       1.001646455333e-10       1.037363419571e-11      -1.094444293482e-14 
   39       1.715195483756e-10       7.403620486116e-15       2.583845359070e-13       0.000000000000e+00       9.502793882093e-11       9.893927517115e-12      -1.062405177873e-14 
   40       1.740922613692e-10       8.061965214149e-15       2.502541493817e-13       0.000000000000e+00       9.025701101053e-11       9.447666838014e-12      -9.905459831779e-15 
   41       1.766763486668e-10       8.757161518668e-15       2.404095162168e-13       0.000000000000e+00       8.578857973749e-11       9.023411575033e-12      -8.949881672692e-15 
   42       1.792765176557e-10       9.489855442062e-15       2.288723781133e-13       0.000000000000e+00       8.160951025912e-11       8.620443870005e-12      -7.915794679937e-15 
   43       1.819001807490e-10       1.026063181926e-14       2.157034580603e-13       0.000000000000e+00       7.770873289639e-11       8.240293136971e-12      -6.984363376369e-15 
   44       1.845521056850e-10       1.107001151346e-14       2.009856113694e-13       0.000000000000e+00       7.405790040849e-11       7.883416176552e-12      -6.370382050428e-15 
   45       1.872347337289e-10       1.191847146848e-14       1.847942525207e-13       0.000000000000e+00       7.062151758536e-11       7.549367687172e-12      -6.259535356767e-15 
   46       1.899499578890e-10       1.280651981797e-14       1.670953218422e-13       0.000000000000e+00       6.739418271984e-11       7.237602459146e-12      -6.593417138986e-15 
   47       1.926973636804e-10       1.373463759797e-14       1.478188150295e-13       0.000000000000e+00       6.437214004271e-11       6.946747072198e-12      -7.223413970169e-15 
   48       1.954733969203e-10       1.470325541768e-14       1.268863043229e-13       0.000000000000e+00       6.154204675554e-11       6.674272677906e-12      -7.967923282349e-15 
   49       1.982710980429e-10       1.571275149357e-14       1.042103434763e-13       0.000000000000e+00       5.888026009552e-11       6.416412889612e-12      -8.610498189227e-15 
   50       2.010831518250e-10       1.676342277670e-14       7.970918800381e-14       0.000000000000e+00       5.635995854709e-11       6.169246900068e-12      -8.957216445059e-15 
   51       2.039126288647e-10       1.785539365649e-14       5.335704687349e-14       0.000000000000e+00       5.397643827372e-11       5.932485927446e-12      -9.031449399514e-15 
   52       2.067647005028e-10       1.898867907740e-14       2.514644251940e-14       0.000000000000e+00       5.172745076447e-11       5.706572624965e-12      -8.928754086262e-15 
   53       2.096434711779e-10       2.016320612441e-14      -4.925789563277e-15       0.000000000000e+00       4.960563271642e-11       5.491579053807e-12      -8.763179507656e-15 
   54       2.125518687608e-10       2.137881079085e-14      -3.685837513075e-14       0.000000000000e+00       4.759816176518e-11       5.287179407270e-12      -8.668198475620e-15 
   55       2.154918206580e-10       2.263530765414e-14      -7.065049584064e-14       0.000000000000e+00       4.569066880387e-11       5.092847869162e-12      -8.763498718654e-15 
   56       2.184650845872e-10       2.393272657646e-14      -1.063181850386e-13       0.000000000000e+00       4.388090175867e-11       4.908572234257e-12      -9.043560671248e-15 
   57       2.214724320962e-10       2.527112914428e-14      -1.438817848857e-13       0.000000000000e+00       4.216785317356e-11       4.734269790696e-12      -9.463032207830e-15 
   58       2.245132844881e-10       2.665054052946e-14      -1.833613512667e-13       0.000000000000e+00       4.054762647172e-11       4.569559616183e-12      -9.968054604519e-15 
   59       2.275856142890e-10       2.807094909765e-14      -2.247767237002e-13       0.000000000000e+00       3.901325752721e-11       4.413744073603e-12      -1.049586422155e-14 
   60       2.306858467163e-10       2.953230601678e-14      -2.681475952486e-13       0.000000000000e+00       3.755453623673e-11       4.265790306642e-12      -1.097439418568e-14 
   61       2.338103596942e-10       3.103443514170e-14      -3.134865976439e-13       0.000000000000e+00       3.616084165265e-11       4.124612611156e-12      -1.133828077071e-14 
   62       2.369606002551e-10       3.257673991721e-14      -3.607765847687e-13       0.000000000000e+00       3.483079468129e-11       3.990035476284e-12      -1.158198204570e-14 
   63       2.401389469492e-10       3.415842969207e-14      -4.099883510601e-13       0.000000000000e+00       3.356446527263e-11       3.862014855660e-12      -1.171792971742e-14 
   64       2.433471657726e-10       3.577860046318e-14      -4.610870176450e-13       0.000000000000e+00       3.236046887827e-11       3.740347586054e-12      -1.176129631591e-14 
   65       2.465863623560e-10       3.743623163721e-14      -5.140318806282e-13       0.000000000000e+00       3.121588364120e-11       3.624662429558e-12      -1.173011738546e-14 
   66       2.498569341539e-10       3.913018279219e-14      -5.687762593808e-13       0.000000000000e+00       3.012616758550e-11       3.514411115757e-12      -1.164541367579e-14 
   67       2.531585226328e-10       4.085919043906e-14      -6.252673448279e-13       0.000000000000e+00       2.908507580610e-11       3.408859383908e-12      -1.153131333307e-14 
   68       2.564905874698e-10       4.262198560939e-14      -6.834555673085e-13       0.000000000000e+00       2.808632814216e-11       3.307281117592e-12      -1.140998882566e-14 
   69       2.598543711243e-10       4.441768152495e-14      -7.433252434745e-13       0.000000000000e+00       2.712918969649e-11       3.209606450792e-12      -1.128500327664e-14 
   70       2.632512482794e-10       4.624545902349e-14      -8.048698952506e-13       0.000000000000e+00       2.621387750777e-11       3.115889496329e-12      -1.115479366474e-14 
   71       2.666821077221e-10       4.810445253734e-14      -8.680833698198e-13       0.000000000000e+00       2.533987275713e-11       3.026113176650e-12      -1.101754728051e-14 
   72       2.701473204408e-10       4.999374994513e-14      -9.329599313791e-13       0.000000000000e+00       2.450588272728e-11       2.940185460189e-12      -1.087119130192e-14 
   73       2.736467077221e-10       5.191239242363e-14      -9.994943528947e-13       0.000000000000e+00       2.370980276166e-11       2.857935597721e-12      -1.071338236997e-14 
   74       2.771795092475e-10       5.385937429948e-14      -1.067682007858e-12       0.000000000000e+00       2.294867822356e-11       2.779110358720e-12      -1.054149616426e-14 
   75       2.807443511908e-10       5.583364290096e-14      -1.137518962040e-12       0.000000000000e+00       2.221866645524e-11       2.703370267719e-12      -1.035261697864e-14 
   76       2.843398830345e-10       5.783405147028e-14      -1.208994526009e-12       0.000000000000e+00       2.151599050301e-11       2.630377152161e-12      -1.014492772733e-14 
   77       2.879668926093e-10       5.985920831487e-14      -1.282067141954e-12       0.000000000000e+00       2.084008516696e-11       2.560083536719e-12      -9.922195639806e-15 
   78       2.916265205732e-10       6.190759975097e-14      -1.356684245978e-12       0.000000000000e+00       2.019095820142e-11       2.492489428829e-12      -9.690089415342e-15 
   79       2.953196080108e-10       6.397763351002e-14      -1.432789355425e-12       0.000000000000e+00       1.956823202642e-11       2.427553828219e-12      -9.454869356083e-15 
   80       2.990466782434e-10       6.606763762790e-14      -1.510322006032e-12       0.000000000000e+00       1.897112602384e-11       2.365192835676e-12      -9.223405659586e-15 
   81       3.028079186381e-10       6.817585933416e-14      -1.589217689094e-12       0.000000000000e+00       1.839843883347e-11       2.305277761827e-12      -9.003196711386e-15 
   82       3.066031624180e-10       7.030046394127e-14      -1.669407788616e-12       0.000000000000e+00       1.784853064913e-11       2.247633235907e-12      -8.802387377568e-15 
   83       3.104318704711e-10       7.243953373384e-14      -1.750819518470e-12       0.000000000000e+00       1.731930551474e-11       2.192035314536e-12      -8.629787297328e-15 
   84       3.142934575364e-10       7.459113862252e-14      -1.833381381865e-12       0.000000000000e+00       1.680872059678e-11       2.138266247399e-12      -8.492643535146e-15 
   85       3.181883727362e-10       7.675356399665e-14      -1.917040727302e-12       0.000000000000e+00       1.631644978587e-11       2.086293348514e-12      -8.389494211147e-15 
   86       3.221171656545e-10       7.892511878381e-14      -2.001749001338e-12       0.000000000000e+00       1.584246470816e-11       2.036116448439e-12      -8.316158184210e-15 
   87       3.260801456683e-10       8.110406713768e-14      -2.087456514567e-12       0.000000000000e+00       1.538652355304e-11       1.987712948682e-12      -8.267856194909e-15 
   88       3.300773695447e-10       8.328862853332e-14      -2.174112471595e-12       0.000000000000e+00       1.494816222606e-11       1.941036882705e-12      -8.239191416224e-15 
   89       3.341086290383e-10       8.547697786263e-14      -2.261665001005e-12       0.000000000000e+00       1.452668550168e-11       1.896017976903e-12      -8.224130004250e-15 
   90       3.381734384890e-10       8.766724552964e-14      -2.350061185328e-12       0.000000000000e+00       1.412115817619e-11       1.852560711603e-12      -8.215981648909e-15 
   91       3.422710224188e-10       8.985751754595e-14      -2.439247091012e-12       0.000000000000e+00       1.373039622048e-11       1.810543382050e-12      -8.207380124656e-15 
   92       3.464003031300e-10       9.204583562602e-14      -2.529167798390e-12       0.000000000000e+00       1.335295793294e-11       1.769817159400e-12      -8.190263841195e-15 
   93       3.505602389707e-10       9.423022123990e-14      -2.619766228254e-12       0.000000000000e+00       1.298748592197e-11       1.730243052814e-12      -8.157642399542e-15 
   94       3.547509242697e-10       9.640875170210e-14      -2.710979354598e-12       0.000000000000e+00       1.263381110578e-11       1.691811194383e-12      -8.109242428555e-15 
   95       3.589726326707e-10       9.857949575608e-14      -2.802741475029e-12       0.000000000000e+00       1.229199916933e-11       1.654537842007e-12      -8.046678873900e-15 
   96       3.632254737164e-10       1.007404910551e-13      -2.894985376683e-12       0.000000000000e+00       1.196201055190e-11       1.618428663685e-12      -7.971749651230e-15 
   97       3.675093852593e-10       1.028897445865e-13      -2.987642349673e-12       0.000000000000e+00       1.164369641572e-11       1.583478318773e-12      -7.886440713099e-15 
   98       3.718241258731e-10       1.050252330958e-13      -3.080642200543e-12       0.000000000000e+00       1.133679461459e-11       1.549670039230e-12      -7.792931115874e-15 
   99       3.761692672631e-10       1.071449035111e-13      -3.173913265717e-12       0.000000000000e+00       1.104092566252e-11       1.516975210875e-12      -7.693598086648e-15 
  100       3.805441866778e-10       1.092466733674e-13      -3.267382424946e-12       0.000000000000e+00       1.075558870231e-11       1.485352954641e-12      -7.591022090153e-15 
  101       3.849480593195e-10       1.113284312304e-13      -3.360975114765e-12       0.000000000000e+00       1.048015747419e-11       1.454749707823e-12      -7.487991895672e-15 
  102       3.893798507554e-10       1.133880371210e-13      -3.454615341935e-12       0.000000000000e+00       1.021387628447e-11       1.425098805336e-12      -7.387509643954e-15 
  103       3.938383093286e-10       1.154233229396e-13      -3.548225696902e-12       0.000000000000e+00       9.955855974122e-12       1.396320060965e-12      -7.292795914122e-15 
  104       3.983222320132e-10       1.174321489434e-13      -3.641728614066e-12       0.000000000000e+00       9.705275431783e-12       1.368338380366e-12      -7.206595452779e-15 
  105       4.028313192263e-10       1.194125809535e-13      -3.735050317533e-12       0.000000000000e+00       9.462025817702e-12       1.341143365517e-12      -7.128976637056e-15 
  106       4.073654218783e-10       1.213627379882e-13      -3.828117435931e-12       0.000000000000e+00       9.226146254546e-12       1.314737018779e-12      -7.059242813429e-15 
  107       4.119242737109e-10       1.232807393750e-13      -3.920855830013e-12       0.000000000000e+00       8.997624302996e-12       1.289115223074e-12      -6.996602504067e-15 
