# Matter power spectrum P(k) at redshift z=0
# for k=9.61529e-06 to 1.69337 h/Mpc,
# number of wavenumbers equal to 561
#    1:k (h/Mpc)              2:P (Mpc/h)^3        
       9.615289314261e-06       7.317359064729e+01 
       2.210536514623e-05       1.634227918146e+02 
       3.463544487372e-05       2.519224137836e+02 
       4.723721876172e-05       3.395332814151e+02 
       5.994285938107e-05       4.265630152288e+02 
       7.278529139584e-05       5.141893190567e+02 
       8.579846934776e-05       6.024297077315e+02 
       9.901766693240e-05       6.912133404630e+02 
       1.124797812898e-04       7.813567557412e+02 
       1.262236558623e-04       8.735934104597e+02 
       1.402904253886e-04       9.663072632419e+02 
       1.547238865746e-04       1.061641843588e+03 
       1.695708978802e-04       1.159311447264e+03 
       1.848818116242e-04       1.259559540167e+03 
       2.007109411897e-04       1.361952613296e+03 
       2.171170654038e-04       1.469406138380e+03 
       2.341639710678e-04       1.579524696682e+03 
       2.519210329712e-04       1.693340696592e+03 
       2.704638283571e-04       1.812143150503e+03 
       2.898747794868e-04       1.936494983155e+03 
       3.102438134153e-04       2.066502217061e+03 
       3.316690220391e-04       2.202388015603e+03 
       3.542572976202e-04       2.345437122688e+03 
       3.781249090560e-04       2.495994473491e+03 
       4.033979720425e-04       2.654536417112e+03 
       4.302127520682e-04       2.822198128242e+03 
       4.587157234672e-04       2.999311639793e+03 
       4.890632917622e-04       3.187047381701e+03 
       5.214210724498e-04       3.386195092703e+03 
       5.559626105741e-04       3.597698531998e+03 
       5.928674265509e-04       3.822423556013e+03 
       6.323182904186e-04       4.061060068392e+03 
       6.744976649005e-04       4.314854418675e+03 
       7.195833219186e-04       4.584189779372e+03 
       7.677432284025e-04       4.869470488398e+03 
       8.191299099178e-04       5.172205650231e+03 
       8.738746209146e-04       5.491677802203e+03 
       9.320817558650e-04       5.828865843683e+03 
       9.938239986979e-04       6.182882474170e+03 
       1.059138703190e-03       6.554202560868e+03 
       1.128025910135e-03       6.940584419022e+03 
       1.200448243261e-03       7.343286047593e+03 
       1.276332711607e-03       7.760060532203e+03 
       1.355574223780e-03       8.190635735891e+03 
       1.438040434516e-03       8.632895842758e+03 
       1.523577430862e-03       7.635985683590e+03 
       1.612015737684e-03       9.546370206462e+03 
       1.703176172135e-03       1.001476430736e+04 
       1.796875180083e-03       1.049048063586e+04 
       1.892929414582e-03       1.097006976310e+04 
       1.991159440694e-03       1.145245483459e+04 
       2.091392554243e-03       1.193722475335e+04 
       2.193464776224e-03       1.242266881536e+04 
       2.297222129180e-03       1.081958839225e+04 
       2.402521321576e-03       1.291041454769e+04 
       2.509229967676e-03       1.387018597152e+04 
       2.617226460286e-03       1.435273580792e+04 
       2.726399597513e-03       1.458558871291e+04 
       2.836648046430e-03       1.435718141913e+04 
       2.947879708669e-03       1.548220445161e+04 
       3.060011037116e-03       1.606722546481e+04 
       3.172966339447e-03       1.402448180135e+04 
       3.286677093471e-03       1.714146906969e+04 
       3.401081290810e-03       1.480421544170e+04 
       3.516122819170e-03       1.547229723976e+04 
       3.631750888754e-03       1.612785087815e+04 
       3.747919505121e-03       1.676603679487e+04 
       3.864586988482e-03       1.738391524548e+04 
       3.981715537973e-03       1.797995900575e+04 
       4.099270838460e-03       1.855366950775e+04 
       4.217221706965e-03       1.910523863763e+04 
       4.335539775497e-03       1.963530322048e+04 
       4.454199207086e-03       2.014476501711e+04 
       4.573176441841e-03       2.063466018633e+04 
       4.692449970049e-03       2.110606835160e+04 
       4.812000129519e-03       2.156006973449e+04 
       4.931808924581e-03       2.199776589647e+04 
       5.051859864428e-03       1.934986475729e+04 
       5.172137818656e-03       1.990264942011e+04 
       5.292628888113e-03       2.045728628036e+04 
       5.413320289366e-03       2.099857552507e+04 
       5.534200251247e-03       2.152491052664e+04 
       5.655257922153e-03       2.203598567098e+04 
       5.776483286895e-03       2.252969673425e+04 
       5.897867092032e-03       2.300539457791e+04 
       6.019400778764e-03       2.346514388860e+04 
       6.141076422542e-03       2.390669105314e+04 
       6.262886678666e-03       2.433247556931e+04 
       6.384824733227e-03       2.474145370447e+04 
       6.506884258807e-03       2.513419931739e+04 
       6.629059374434e-03       2.551074317083e+04 
       6.751344609342e-03       2.587591240730e+04 
       6.873734870139e-03       2.622491061870e+04 
       6.996225411020e-03       2.656069307345e+04 
       7.118811806720e-03       2.688435615279e+04 
       7.241489927924e-03       2.719498629395e+04 
       7.364255918885e-03       2.749434417931e+04 
       7.487106177030e-03       2.778225442820e+04 
       7.610037334356e-03       2.805950573934e+04 
       7.733046240449e-03       2.832592596931e+04 
       7.856129946952e-03       2.858398063313e+04 
       7.979285693361e-03       2.883185728553e+04 
       8.102510894009e-03       2.907057677096e+04 
       8.225803126136e-03       2.930113308961e+04 
       8.349160118940e-03       2.952302664470e+04 
       8.472579743517e-03       2.973743558229e+04 
       8.596060003616e-03       2.994307797826e+04 
       8.719599027127e-03       3.014172598257e+04 
       8.843195058241e-03       3.033357800548e+04 
       8.966846450228e-03       3.051904936207e+04 
       9.090551658772e-03       3.069590771642e+04 
       9.214309235811e-03       3.086736564445e+04 
       9.338117823858e-03       3.103225310206e+04 
       9.461976150738e-03       3.119111913539e+04 
       9.585883024724e-03       3.134347335454e+04 
       9.709837330033e-03       3.149103498553e+04 
       9.833838022656e-03       3.163232785667e+04 
       9.957884126480e-03       3.176834875055e+04 
       1.008197472971e-02       3.189935380231e+04 
       1.020610898153e-02       3.202364211245e+04 
       1.033028608902e-02       3.214392840360e+04 
       1.045450531427e-02       3.225988578851e+04 
       1.057876597172e-02       3.236938642747e+04 
       1.070306742568e-02       3.247511850236e+04 
       1.082740908800e-02       3.257655397685e+04 
       1.095179041597e-02       3.267193906114e+04 
       1.107621091026e-02       3.276382325889e+04 
       1.120067011311e-02       3.285118734117e+04 
       1.132516760658e-02       3.293396015986e+04 
       1.144970301093e-02       3.301322984521e+04 
       1.157427598314e-02       3.308778959196e+04 
       1.169888621550e-02       2.804614760047e+04 
       1.182353343433e-02       3.322496396100e+04 
       1.194821739874e-02       2.819393354492e+04 
       1.207293789951e-02       3.334768754455e+04 
       1.219769475811e-02       3.340202259394e+04 
       1.232248782561e-02       3.345375036320e+04 
       1.244731698191e-02       3.350152380343e+04 
       1.257218213479e-02       3.354571614403e+04 
       1.269708321920e-02       3.358669054235e+04 
       1.282202019653e-02       3.362426170106e+04 
       1.294699305395e-02       3.365825882013e+04 
       1.307200180376e-02       3.368992659913e+04 
       1.319704648287e-02       3.371734846238e+04 
       1.332212715228e-02       3.374050992565e+04 
       1.344724389655e-02       3.376217828952e+04 
       1.357239682342e-02       3.377944176074e+04 
       1.369758606341e-02       3.379493136785e+04 
       1.382281176942e-02       3.380655481219e+04 
       1.394807411644e-02       3.381515723113e+04 
       1.407337330122e-02       3.382134663253e+04 
       1.419870954207e-02       3.382470551231e+04 
       1.432408307857e-02       3.382505025912e+04 
       1.444949417137e-02       3.382284454077e+04 
       1.457494310208e-02       3.381770544931e+04 
       1.470043017304e-02       3.380826208113e+04 
       1.482595570724e-02       3.379955695991e+04 
       1.495152004823e-02       3.378700794168e+04 
       1.507712356000e-02       3.377117159437e+04 
       1.520276662698e-02       3.375330135602e+04 
       1.532844965398e-02       3.373297946624e+04 
       1.545417306618e-02       3.371016963325e+04 
       1.557993730917e-02       3.368491396834e+04 
       1.570574284895e-02       3.365728453520e+04 
       1.583159017197e-02       3.362758428390e+04 
       1.595747978526e-02       3.359566388923e+04 
       1.608341221645e-02       3.356136749954e+04 
       1.620938801394e-02       3.352472644723e+04 
       1.633540774697e-02       3.348629330614e+04 
       1.646147200580e-02       3.344550721865e+04 
       1.658758140185e-02       3.340271387341e+04 
       1.671373656790e-02       3.335802143417e+04 
       1.683993815826e-02       3.331127032612e+04 
       1.696618684898e-02       3.326249666956e+04 
       1.709248333812e-02       3.321176198433e+04 
       1.721882834593e-02       3.315928396780e+04 
       1.734522261518e-02       3.310491188799e+04 
       1.747166691137e-02       3.304852419584e+04 
       1.759816202309e-02       3.299056446589e+04 
       1.772470876225e-02       3.293073501176e+04 
       1.785130796451e-02       3.286932175815e+04 
       1.797796048952e-02       3.280608571777e+04 
       1.810466722136e-02       3.274182946184e+04 
       1.823142906887e-02       3.267485521582e+04 
       1.835824696605e-02       3.260676366778e+04 
       1.848512187249e-02       3.253707650283e+04 
       1.861205477379e-02       3.246588785289e+04 
       1.873904668198e-02       3.239329595353e+04 
       1.886609863603e-02       3.231906492695e+04 
       1.899321170228e-02       3.224353797609e+04 
       1.912038697500e-02       3.216653694425e+04 
       1.924762557682e-02       3.208811639264e+04 
       1.937492865936e-02       3.200847050112e+04 
       1.950229740374e-02       3.192739873119e+04 
       1.962973302112e-02       3.184505253251e+04 
       1.975723675338e-02       3.176140110378e+04 
       1.988480987366e-02       3.167648122302e+04 
       2.001245368704e-02       3.159055407356e+04 
       2.014016953116e-02       3.150328501174e+04 
       2.026795877693e-02       3.141479312052e+04 
       2.039582282924e-02       3.132511432987e+04 
       2.052376312763e-02       3.123448801074e+04 
       2.065178114710e-02       3.114273037505e+04 
       2.077987839885e-02       3.104994875580e+04 
       2.090805643106e-02       3.095603068829e+04 
       2.103631682976e-02       3.086120632778e+04 
       2.116466121964e-02       3.076520221895e+04 
       2.129309126492e-02       3.066844227306e+04 
       2.142160867028e-02       3.057075788333e+04 
       2.155021518178e-02       3.047211910092e+04 
       2.167891258781e-02       3.037256292090e+04 
       2.180770272008e-02       3.027217143043e+04 
       2.193658745466e-02       3.017099550573e+04 
       2.206556871301e-02       3.006899329173e+04 
       2.219464846308e-02       2.996611206244e+04 
       2.232382872043e-02       2.986253530617e+04 
       2.245311154938e-02       2.975827649370e+04 
       2.258249906419e-02       2.965323747807e+04 
       2.271199343033e-02       2.954738158792e+04 
       2.284159686570e-02       2.944098899232e+04 
       2.297131164198e-02       2.933391466253e+04 
       2.310114008594e-02       2.922615015257e+04 
       2.323108458087e-02       2.911781807313e+04 
       2.336114756799e-02       2.900860469413e+04 
       2.349133154797e-02       2.889922429573e+04 
       2.362163908242e-02       2.878916735613e+04 
       2.375207279548e-02       2.867858339657e+04 
       2.388263537550e-02       2.856740710391e+04 
       2.401332957666e-02       2.845581431398e+04 
       2.414415822076e-02       2.834367588659e+04 
       2.427512419898e-02       2.823112360763e+04 
       2.440623047379e-02       2.811815765573e+04 
       2.453748008081e-02       2.800462894345e+04 
       2.466887613085e-02       2.789078476634e+04 
       2.480042181193e-02       2.777667311461e+04 
       2.493212039139e-02       2.766205922364e+04 
       2.506397521811e-02       2.754708850952e+04 
       2.519598972479e-02       2.743179817331e+04 
       2.532816743023e-02       2.731626907586e+04 
       2.546051194184e-02       2.720026261319e+04 
       2.559302695808e-02       2.708423444393e+04 
       2.572571627112e-02       2.696774728940e+04 
       2.585858376946e-02       2.685105886385e+04 
       2.599163344080e-02       2.673418199156e+04 
       2.612486937484e-02       2.661707208268e+04 
       2.625829576634e-02       2.649964605232e+04 
       2.639191691818e-02       2.638209186082e+04 
       2.652573724456e-02       2.626448635939e+04 
       2.665976127435e-02       2.614644170449e+04 
       2.679399365455e-02       2.602852956246e+04 
       2.692843915384e-02       2.591033790654e+04 
       2.706310266628e-02       2.579207925146e+04 
       2.719798921522e-02       2.567366975631e+04 
       2.733310395725e-02       2.555516430208e+04 
       2.746845218635e-02       2.543667492060e+04 
       2.760403933823e-02       2.531803444293e+04 
       2.773987099480e-02       2.519935662377e+04 
       2.787595288879e-02       2.508064186390e+04 
       2.801229090863e-02       2.496193751077e+04 
       2.814889110348e-02       2.484325690757e+04 
       2.828575968842e-02       2.472478701665e+04 
       2.842290304992e-02       2.460569817694e+04 
       2.856032775150e-02       2.448694869401e+04 
       2.869804053964e-02       2.436827816897e+04 
       2.883604834989e-02       2.424966928697e+04 
       2.897435831329e-02       2.413102977140e+04 
       2.911297776302e-02       2.401247376329e+04 
       2.925191424135e-02       2.389406263153e+04 
       2.939117550691e-02       2.377566294449e+04 
       2.953076954221e-02       2.365735368012e+04 
       2.967070456154e-02       2.353916556636e+04 
       2.981098901921e-02       2.342100287128e+04 
       2.995163161814e-02       2.330310221912e+04 
       3.009264131886e-02       2.318528931385e+04 
       3.023402734885e-02       2.306760952967e+04 
       3.037579921241e-02       2.295007632171e+04 
       3.051796670087e-02       2.283269218471e+04 
       3.066053990340e-02       2.271535326840e+04 
       3.080352921815e-02       2.259835894027e+04 
       3.094694536413e-02       2.248151722530e+04 
       3.109079939347e-02       2.236483168555e+04 
       3.123510270437e-02       2.224828798047e+04 
       3.137986705467e-02       2.213188695739e+04 
       3.152510457604e-02       2.201582849062e+04 
       3.167082778892e-02       2.189996368380e+04 
       3.181704961821e-02       2.178426854558e+04 
       3.196378340970e-02       2.166883496322e+04 
       3.211104294737e-02       2.155365376678e+04 
       3.225884247162e-02       2.143860309395e+04 
       3.240719669841e-02       2.132378801385e+04 
       3.255612083935e-02       2.120937759682e+04 
       3.270563062300e-02       2.109505600231e+04 
       3.285574231720e-02       2.098112867108e+04 
       3.300647275264e-02       2.086734757067e+04 
       3.315783934773e-02       2.075387737647e+04 
       3.330986013489e-02       2.064061794800e+04 
       3.346255378823e-02       2.052769763426e+04 
       3.361593965289e-02       2.041500913067e+04 
       3.377003777600e-02       2.030269521626e+04 
       3.392486893947e-02       2.019061150813e+04 
       3.408045469470e-02       2.007876989835e+04 
       3.423681739933e-02       1.996728949081e+04 
       3.439398025624e-02       1.985595913365e+04 
       3.455196735488e-02       1.974507091462e+04 
       3.471080371518e-02       1.963440390967e+04 
       3.487051533414e-02       1.952405315471e+04 
       3.503112923544e-02       1.941399578041e+04 
       3.519267352214e-02       1.930429479604e+04 
       3.535517743282e-02       1.919479766198e+04 
       3.551867140140e-02       1.908573021481e+04 
       3.568318712089e-02       1.897678834207e+04 
       3.584875761147e-02       1.886832543470e+04 
       3.601541729319e-02       1.876005414509e+04 
       3.618320206363e-02       1.865215583507e+04 
       3.635214938104e-02       1.854449662270e+04 
       3.652229835337e-02       1.843729769731e+04 
       3.669368983365e-02       1.833028589166e+04 
       3.686636652234e-02       1.564449188935e+04 
       3.704037307726e-02       1.811715261690e+04 
       3.721575623170e-02       1.801105546228e+04 
       3.739256492151e-02       1.790531033412e+04 
       3.757085042206e-02       1.779978232894e+04 
       3.775066649583e-02       1.769455685353e+04 
       3.793206955174e-02       1.758967703620e+04 
       3.811511881739e-02       1.748503841896e+04 
       3.829987652533e-02       1.496703154534e+04 
       3.848640811484e-02       1.727671922438e+04 
       3.867478245086e-02       1.485717836626e+04 
       3.886507206157e-02       1.706953867389e+04 
       3.905735339685e-02       1.696635699609e+04 
       3.925170710959e-02       1.423879370802e+04 
       3.944821836250e-02       1.478229669414e+04 
       3.964697716299e-02       1.665847099246e+04 
       3.984807872945e-02       1.655638189812e+04 
       4.005162389227e-02       1.645444170536e+04 
       4.025771953381e-02       1.387869628124e+04 
       4.046647907165e-02       1.625150399960e+04 
       4.067802299052e-02       1.402909958451e+04 
       4.089247942856e-02       1.604947954895e+04 
       4.110998482486e-02       1.594881542594e+04 
       4.133068463586e-02       1.584828920465e+04 
       4.155473412960e-02       1.574802132901e+04 
       4.178229926778e-02       1.564797967194e+04 
       4.201355768772e-02       1.554813141274e+04 
       4.224869979758e-02       1.430528026400e+04 
       4.248793000074e-02       1.534888464162e+04 
       4.273146806774e-02       1.524956625287e+04 
       4.297955067727e-02       1.380151642708e+04 
       4.323243315120e-02       1.505121475633e+04 
       4.349039141334e-02       1.495227268982e+04 
       4.375372420662e-02       1.399458977263e+04 
       4.402275560974e-02       1.475466447831e+04 
       4.429783790227e-02       1.319715252795e+04 
       4.457935483600e-02       1.455731722411e+04 
       4.486772538228e-02       1.445879073371e+04 
       4.516340803831e-02       1.436010374021e+04 
       4.546690579303e-02       1.426156166284e+04 
       4.577877187367e-02       1.416292906362e+04 
       4.609961642041e-02       1.406427873019e+04 
       4.643011426884e-02       1.396553449352e+04 
       4.677101406034e-02       1.386674654158e+04 
       4.712314895095e-02       1.376770818073e+04 
       4.748744925340e-02       1.222665232279e+04 
       4.786495742726e-02       1.356917922087e+04 
       4.825684593437e-02       1.346956324560e+04 
       4.866443860663e-02       1.336948095235e+04 
       4.908923633853e-02       1.326912458630e+04 
       4.953294812763e-02       1.231117692329e+04 
       4.999752875495e-02       1.306679455170e+04 
       5.048522473784e-02       1.227018967557e+04 
       5.099863061700e-02       1.207856920641e+04 
       5.154075817239e-02       1.275789552943e+04 
       5.211512180701e-02       1.217404808818e+04 
       5.272584408333e-02       1.254626058989e+04 
       5.337778618313e-02       1.194001948727e+04 
       5.407670872793e-02       1.232735027782e+04 
       5.482946856735e-02       1.221392996325e+04 
       5.564425602745e-02       1.169775123452e+04 
       5.653087312604e-02       1.197504126530e+04 
       5.750104340672e-02       1.184691097444e+04 
       5.856872298619e-02       1.171025650545e+04 
