# Matter power spectrum P(k) at redshift z=0
# for k=9.24826e-06 to 1.50673 h/Mpc,
# number of wavenumbers equal to 558
#    1:k (h/Mpc)              2:P (Mpc/h)^3        
       9.248264955616e-06       8.727422427526e+01 
       2.149527501614e-05       1.974332854657e+02 
       3.377956687351e-05       3.050876516986e+02 
       4.613100815899e-05       4.118399822102e+02 
       5.857990021434e-05       5.183277252975e+02 
       7.115722242705e-05       6.246261321683e+02 
       8.389488349767e-05       7.317323800618e+02 
       9.682598268873e-05       8.397648016206e+02 
       1.099850841286e-04       9.487176989054e+02 
       1.234085072720e-04       1.060420424354e+03 
       1.371346366378e-04       1.173629328807e+03 
       1.512042539280e-04       1.288760617241e+03 
       1.656608955621e-04       1.406919345392e+03 
       1.805512384854e-04       1.526975990043e+03 
       1.959255167904e-04       1.650786033853e+03 
       2.118379711500e-04       1.780441392079e+03 
       2.283473322162e-04       1.912028355150e+03 
       2.455173378711e-04       2.049223013460e+03 
       2.634172823864e-04       2.192213059849e+03 
       2.821225929742e-04       2.340528927969e+03 
       3.017154256883e-04       2.495337666274e+03 
       3.222852679217e-04       2.657695208152e+03 
       3.439295285884e-04       2.827531272295e+03 
       3.667540892532e-04       3.006366633260e+03 
       3.908737798105e-04       3.194245033994e+03 
       4.164127308184e-04       3.391626359005e+03 
       4.435045415568e-04       3.601133710792e+03 
       4.722921890417e-04       3.822076537350e+03 
       5.029275900141e-04       4.055527589564e+03 
       5.355707176293e-04       4.303795242914e+03 
       5.703881705259e-04       4.566276254312e+03 
       6.075510984744e-04       4.845370938581e+03 
       6.472324107999e-04       5.141326120623e+03 
       6.896032358672e-04       5.454605480569e+03 
       7.348286648530e-04       5.787065177292e+03 
       7.830628996914e-04       6.139221515660e+03 
       8.344440263503e-04       6.510591919181e+03 
       8.890887361990e-04       6.900663998283e+03 
       9.470873995696e-04       7.313063349544e+03 
       1.008499933555e-03       7.744410992790e+03 
       1.073352881534e-03       8.195940462876e+03 
       1.141638027264e-03       8.666077372083e+03 
       1.213312710999e-03       9.151964221269e+03 
       1.288301825234e-03       9.654730574041e+03 
       1.366501280324e-03       1.017193312970e+04 
       1.447782581924e-03       1.070534994876e+04 
       1.531998078533e-03       1.124488811295e+04 
       1.618986426124e-03       1.179844997353e+04 
       1.708577868432e-03       1.235708252834e+04 
       1.800599024680e-03       1.292249494110e+04 
       1.894876986612e-03       1.349251297877e+04 
       1.991242632322e-03       1.406527424526e+04 
       2.089533151328e-03       1.463935758218e+04 
       2.189593837484e-03       1.520566440208e+04 
       2.291279243634e-03       1.193007639323e+04 
       2.394453808456e-03       1.305249069979e+04 
       2.498992067093e-03       1.392632494859e+04 
       2.604778548628e-03       1.655566872499e+04 
       2.711707449604e-03       1.737267039010e+04 
       2.819682157122e-03       1.700081552543e+04 
       2.928614679686e-03       1.862638655388e+04 
       3.038425030111e-03       1.884262960544e+04 
       3.149040593060e-03       1.853024621836e+04 
       3.260395500251e-03       1.556245620312e+04 
       3.372430028836e-03       1.644752854043e+04 
       3.485090032783e-03       1.732622478558e+04 
       3.598326412833e-03       1.819382514855e+04 
       3.712094627570e-03       1.904075337247e+04 
       3.826354246026e-03       1.986077447383e+04 
       3.941068540795e-03       2.065020968090e+04 
       4.056204119730e-03       2.140733856486e+04 
       4.171730593766e-03       2.213175661304e+04 
       4.287620278115e-03       2.282398242699e+04 
       4.403847924019e-03       2.348512346567e+04 
       4.520390478272e-03       2.411656061432e+04 
       4.637226867821e-03       2.471997394430e+04 
       4.754337806951e-03       2.529708822716e+04 
       4.871705624698e-03       2.040812272193e+04 
       4.989314110385e-03       2.110492312070e+04 
       5.107148375324e-03       2.184753420281e+04 
       5.225194728939e-03       2.258085252053e+04 
       5.343440567751e-03       2.330163071064e+04 
       5.461874275811e-03       2.400577056566e+04 
       5.580485135324e-03       2.468954786211e+04 
       5.699263246367e-03       2.535073793964e+04 
       5.818199454688e-03       2.598850084818e+04 
       5.937285286720e-03       2.660126902805e+04 
       6.056512891027e-03       2.719041957374e+04 
       6.175874985487e-03       2.775427414761e+04 
       6.295364809596e-03       2.829543328265e+04 
       6.414976081355e-03       2.881267824344e+04 
       6.534702958256e-03       2.930776874080e+04 
       6.654540001927e-03       2.978163433455e+04 
       6.774482146078e-03       3.023431240430e+04 
       6.894524667380e-03       3.066700951828e+04 
       7.014663159011e-03       3.108107327647e+04 
       7.134893506570e-03       3.147662160197e+04 
       7.255211866142e-03       3.185474865170e+04 
       7.375614644291e-03       3.221719286908e+04 
       7.496098479796e-03       3.256000585963e+04 
       7.616660226962e-03       3.289547048939e+04 
       7.737296940352e-03       3.321300583121e+04 
       7.858005860806e-03       3.351918973180e+04 
       7.978784402624e-03       3.380876819562e+04 
       8.099630141811e-03       3.408765066725e+04 
       8.220540805277e-03       3.435485164190e+04 
       8.341514260915e-03       3.461123348729e+04 
       8.462548508468e-03       3.485676804086e+04 
       8.583641671122e-03       3.509124113894e+04 
       8.704791987759e-03       3.531660749902e+04 
       8.825997805806e-03       3.553083134259e+04 
       8.947257574646e-03       3.573718451330e+04 
       9.068569839515e-03       3.593497761289e+04 
       9.189933235876e-03       3.612454832633e+04 
       9.311346484205e-03       3.630379356457e+04 
       9.432808385164e-03       3.647634903544e+04 
       9.554317815133e-03       3.664066778970e+04 
       9.675873722072e-03       3.679791087587e+04 
       9.797475121669e-03       3.694406463869e+04 
       9.919121093784e-03       3.709175122289e+04 
       1.004081077913e-02       3.722798331842e+04 
       1.016254337621e-02       3.735785222849e+04 
       1.028431813845e-02       3.748061685609e+04 
       1.040613437152e-02       3.759768579040e+04 
       1.052799143092e-02       3.770858051258e+04 
       1.064988871962e-02       3.781397815982e+04 
       1.077182568595e-02       3.791302542625e+04 
       1.089380182162e-02       3.800757875772e+04 
       1.101581665983e-02       3.809497489554e+04 
       1.113786977356e-02       3.817734826919e+04 
       1.125996077398e-02       3.825428692461e+04 
       1.138208930893e-02       2.906494930517e+04 
       1.150425506152e-02       2.902508541503e+04 
       1.162645774884e-02       3.845661216487e+04 
       1.174869712079e-02       3.851426165679e+04 
       1.187097295887e-02       3.856430731159e+04 
       1.199328507522e-02       3.861591946008e+04 
       1.211563331160e-02       3.865972654094e+04 
       1.223801753849e-02       3.869923988983e+04 
       1.236043765427e-02       3.873449930611e+04 
       1.248289358442e-02       3.876587909803e+04 
       1.260538528082e-02       3.879231679238e+04 
       1.272791272106e-02       3.881606941000e+04 
       1.285047590786e-02       3.883407347481e+04 
       1.297307486845e-02       3.884874554827e+04 
       1.309570965410e-02       3.885965262506e+04 
       1.321838033959e-02       3.886718889352e+04 
       1.334108702283e-02       3.887078923717e+04 
       1.346382982438e-02       3.887064403379e+04 
       1.358660888717e-02       3.886692532857e+04 
       1.370942437611e-02       3.886041187080e+04 
       1.383227647780e-02       3.884986538929e+04 
       1.395516540030e-02       3.883593854913e+04 
       1.407809137286e-02       3.881878820150e+04 
       1.420105464571e-02       3.879856522104e+04 
       1.432405548992e-02       3.877503394175e+04 
       1.444709419719e-02       3.874860015797e+04 
       1.457017107978e-02       3.871959672100e+04 
       1.469328647037e-02       3.868596453985e+04 
       1.481644072197e-02       3.865062366502e+04 
       1.493963420791e-02       3.861210432834e+04 
       1.506286732177e-02       3.857094943850e+04 
       1.518614047736e-02       3.852670425714e+04 
       1.530945410875e-02       3.847995352491e+04 
       1.543280867027e-02       3.843035478566e+04 
       1.555620463660e-02       3.837847695765e+04 
       1.567964250278e-02       3.832355765184e+04 
       1.580312278432e-02       3.826595640140e+04 
       1.592664601732e-02       3.820668479996e+04 
       1.605021275856e-02       3.814457667477e+04 
       1.617382358565e-02       3.807977726302e+04 
       1.629747909717e-02       3.801297521810e+04 
       1.642117991289e-02       3.794404935663e+04 
       1.654492667388e-02       3.787263071807e+04 
       1.666872004278e-02       3.779830417842e+04 
       1.679256070401e-02       3.772300341529e+04 
       1.691644936398e-02       3.764512505733e+04 
       1.704038675136e-02       3.756523020864e+04 
       1.716437361738e-02       3.748248819245e+04 
       1.728841073606e-02       3.739882215819e+04 
       1.741249890455e-02       3.731276752362e+04 
       1.753663894348e-02       3.722470121677e+04 
       1.766083169721e-02       3.713502726489e+04 
       1.778507803426e-02       3.704316839728e+04 
       1.790937884766e-02       3.695002249964e+04 
       1.803373505530e-02       3.685484635516e+04 
       1.815814760041e-02       3.675778027256e+04 
       1.828261745187e-02       3.665920442211e+04 
       1.840714560478e-02       3.655907226146e+04 
       1.853173308078e-02       3.645720019371e+04 
       1.865638092863e-02       3.635377404968e+04 
       1.878109022463e-02       3.624866084332e+04 
       1.890586207320e-02       3.614219348163e+04 
       1.903069760731e-02       3.603423716121e+04 
       1.915559798912e-02       3.592489002329e+04 
       1.928056441049e-02       3.581428828847e+04 
       1.940559809359e-02       3.570182176555e+04 
       1.953070029149e-02       3.558845158426e+04 
       1.965587228882e-02       3.547362085070e+04 
       1.978111540235e-02       3.535779646748e+04 
       1.990643098174e-02       3.524031730394e+04 
       2.003182041017e-02       3.512172485260e+04 
       2.015728510509e-02       3.500235605960e+04 
       2.028282651893e-02       3.488128251637e+04 
       2.040844613987e-02       3.475956946776e+04 
       2.053414549265e-02       3.463661083398e+04 
       2.065992613933e-02       3.451260565599e+04 
       2.078578968018e-02       3.438751994405e+04 
       2.091173775450e-02       3.426154055212e+04 
       2.103777204153e-02       3.413458181126e+04 
       2.116389426137e-02       3.400620146720e+04 
       2.129010617591e-02       3.387771970284e+04 
       2.141640958982e-02       3.374811516933e+04 
       2.154280635157e-02       3.361755788816e+04 
       2.166929835443e-02       3.348625250622e+04 
       2.179588753759e-02       3.335406512157e+04 
       2.192257588722e-02       3.322120373230e+04 
       2.204936543764e-02       3.308757435218e+04 
       2.217625827249e-02       3.295323668146e+04 
       2.230325652596e-02       3.281831641693e+04 
       2.243036238399e-02       3.268273857700e+04 
       2.255757808562e-02       3.254623037027e+04 
       2.268490592429e-02       3.240942739868e+04 
       2.281234824925e-02       3.227198604168e+04 
       2.293990746692e-02       3.213391068096e+04 
       2.306758604242e-02       3.199528041026e+04 
       2.319538650105e-02       3.185628305406e+04 
       2.332331142985e-02       3.171669460718e+04 
       2.345136347924e-02       3.157669806289e+04 
       2.357954536465e-02       3.143617829690e+04 
       2.370785986826e-02       3.129531552683e+04 
       2.383630984079e-02       3.115402339905e+04 
       2.396489820330e-02       3.101228219921e+04 
       2.409362794914e-02       3.087030544459e+04 
       2.422250214585e-02       3.072805009223e+04 
       2.435152393724e-02       3.058536963119e+04 
       2.448069654546e-02       3.044240209265e+04 
       2.461002327317e-02       3.029919975240e+04 
       2.473950750579e-02       3.015578911847e+04 
       2.486915271379e-02       3.001206799207e+04 
       2.499896245515e-02       2.986813686331e+04 
       2.512894037776e-02       2.972405759619e+04 
       2.525909022207e-02       2.957991661634e+04 
       2.538941582368e-02       2.943537062439e+04 
       2.551992111617e-02       2.929082049764e+04 
       2.565061013387e-02       2.914628771685e+04 
       2.578148701489e-02       2.900147942411e+04 
       2.591255600413e-02       2.885643822653e+04 
       2.604382145647e-02       2.871168208002e+04 
       2.617528784010e-02       2.856684036886e+04 
       2.630695973986e-02       2.842169717378e+04 
       2.643884186085e-02       2.827673807934e+04 
       2.657093903204e-02       2.813179665370e+04 
       2.670325621015e-02       2.798678604365e+04 
       2.683579848353e-02       2.784188519915e+04 
       2.696857107634e-02       2.769699306069e+04 
       2.710157935277e-02       2.755219020266e+04 
       2.723482882148e-02       2.740732731792e+04 
       2.736832514023e-02       2.726258156049e+04 
       2.750207412063e-02       2.711807239589e+04 
       2.763608173316e-02       2.697375863485e+04 
       2.777035411233e-02       2.682928196312e+04 
       2.790489756205e-02       2.668513033774e+04 
       2.803971856126e-02       2.654113118256e+04 
       2.817482376979e-02       2.639727054698e+04 
       2.831022003438e-02       2.625359299889e+04 
       2.844591439508e-02       2.611009268931e+04 
       2.858191409182e-02       2.596678809711e+04 
       2.871822657128e-02       2.582382278474e+04 
       2.885485949409e-02       2.568101517683e+04 
       2.899182074232e-02       2.553840514637e+04 
       2.912911842729e-02       2.539611664380e+04 
       2.926676089771e-02       2.525403996232e+04 
       2.940475674824e-02       2.016575048640e+04 
       2.954311482834e-02       2.497069129623e+04 
       2.968184425162e-02       2.482943499343e+04 
       2.982095440556e-02       2.468846329724e+04 
       2.996045496167e-02       2.454790072644e+04 
       3.010035588615e-02       2.440770899270e+04 
       3.024066745103e-02       2.426772758387e+04 
       3.038140024586e-02       2.412810187257e+04 
       3.052256518996e-02       2.398875837931e+04 
       3.066417354517e-02       1.950492148980e+04 
       3.080623692940e-02       2.371128727143e+04 
       3.094876733065e-02       2.357298961439e+04 
       3.109177712190e-02       2.343518321368e+04 
       3.123527907659e-02       1.913130130926e+04 
       3.137928638500e-02       2.316058090615e+04 
       3.152381267142e-02       2.302399525863e+04 
       3.166887201224e-02       2.288764775590e+04 
       3.181447895491e-02       2.275183665323e+04 
       3.196064853797e-02       2.261629930159e+04 
       3.210739631215e-02       1.846404698540e+04 
       3.225473836257e-02       1.693932949382e+04 
       3.240269133215e-02       2.221244798618e+04 
       3.255127244637e-02       1.781024346980e+04 
       3.270049953929e-02       2.194531686142e+04 
       3.285039108117e-02       2.181243873804e+04 
       3.300096620759e-02       1.713664373540e+04 
       3.315224475022e-02       2.154796502357e+04 
       3.330424726944e-02       2.141641934062e+04 
       3.345699508886e-02       1.876449393144e+04 
       3.361051033188e-02       2.115466792699e+04 
       3.376481596050e-02       2.102450258694e+04 
       3.391993581639e-02       2.089472845490e+04 
       3.407589466465e-02       2.076556012381e+04 
       3.423271824017e-02       2.063670809318e+04 
       3.439043329700e-02       2.050839326766e+04 
       3.454906766082e-02       2.038056681047e+04 
       3.470865028489e-02       2.025321556862e+04 
       3.486921130959e-02       2.012629876582e+04 
       3.503078212599e-02       1.750736084636e+04 
       3.519339544363e-02       1.987386756182e+04 
       3.535708536301e-02       1.974847806005e+04 
       3.552188745303e-02       1.962342998033e+04 
       3.568783883385e-02       1.949896214363e+04 
       3.585497826572e-02       1.937489819009e+04 
       3.602334624412e-02       1.925135540157e+04 
       3.619298510189e-02       1.912834268224e+04 
       3.636393911890e-02       1.900572118860e+04 
       3.653625464004e-02       1.888355750747e+04 
       3.670998020207e-02       1.876191277129e+04 
       3.688516667044e-02       1.864063604463e+04 
       3.706186738671e-02       1.851998731950e+04 
       3.724013832785e-02       1.839976542750e+04 
       3.742003827834e-02       1.828001566595e+04 
       3.760162901644e-02       1.816065755307e+04 
       3.778497551610e-02       1.390221076998e+04 
       3.797014616588e-02       1.792347657854e+04 
       3.815721300681e-02       1.617376595236e+04 
       3.834625199113e-02       1.424817616198e+04 
       3.853734326408e-02       1.549001020854e+04 
       3.873057147117e-02       1.745451288425e+04 
       3.892602609392e-02       1.628063211670e+04 
       3.912380181700e-02       1.722271503011e+04 
       3.932399893051e-02       1.710746584569e+04 
       3.952672377139e-02       1.699267333224e+04 
       3.973208920851e-02       1.687829019214e+04 
       3.994021517683e-02       1.310979379402e+04 
       4.015122926638e-02       1.665077223308e+04 
       4.036526737311e-02       1.653768108220e+04 
       4.058247441927e-02       1.642495940915e+04 
       4.080300515241e-02       1.334018443430e+04 
       4.102702503331e-02       1.620072092999e+04 
       4.125471122480e-02       1.219088049349e+04 
       4.148625369534e-02       1.386105370683e+04 
       4.172185645346e-02       1.586719574937e+04 
       4.196173893166e-02       1.575677377298e+04 
       4.220613754184e-02       1.564673068442e+04 
       4.245530742771e-02       1.225042405578e+04 
       4.270952444444e-02       1.542762718239e+04 
       4.296908740091e-02       1.531860566205e+04 
       4.323432060677e-02       1.409935823619e+04 
       4.350557677414e-02       1.510145824617e+04 
       4.378324033337e-02       1.499326658553e+04 
       4.406773123417e-02       1.407669888366e+04 
       4.435950931746e-02       1.477793399902e+04 
       4.465907936101e-02       1.388258571818e+04 
       4.496699692362e-02       1.456362781568e+04 
       4.528387513946e-02       1.445684679265e+04 
       4.561039264774e-02       1.232881859402e+04 
       4.594730288458e-02       1.424388077123e+04 
       4.629544501680e-02       1.413768260287e+04 
       4.665575686311e-02       1.403161542899e+04 
       4.702929023232e-02       1.392569092125e+04 
       4.741722921415e-02       1.381991795761e+04 
       4.782091209327e-02       1.371415935853e+04 
       4.824185772972e-02       1.360835434428e+04 
       4.868179746772e-02       1.272326613448e+04 
       4.914271391491e-02       1.233333880185e+04 
       4.962688828744e-02       1.329080959753e+04 
       5.013695846128e-02       1.318445320976e+04 
       5.067599041885e-02       1.307774969470e+04 
       5.124756643897e-02       1.297041333125e+04 
       5.185589412678e-02       1.286225433737e+04 
       5.250594114285e-02       1.275289373614e+04 
       5.320360106963e-02       1.215265701057e+04 
       5.395589580483e-02       1.213761522281e+04 
       5.477121827043e-02       1.203814743335e+04 
       5.565961424776e-02       1.229197607936e+04 
       5.663309038051e-02       1.216527667197e+04 
