# Matter power spectrum P(k) at redshift z=0
# for k=1.0957e-05 to 1.83357 h/Mpc,
# number of wavenumbers equal to 567
#    1:k (h/Mpc)              2:P (Mpc/h)^3        
       1.095702512025e-05       5.106600575507e+01 
       2.445893790956e-05       1.114484455112e+02 
       3.801302042840e-05       1.704879101322e+02 
       5.165935120254e-05       2.289930495913e+02 
       6.543873658940e-05       2.877899478183e+02 
       7.939311041090e-05       3.459155423922e+02 
       9.356594756686e-05       4.054019043252e+02 
       1.080026976253e-04       4.653970821890e+02 
       1.227512444283e-04       5.263746594219e+02 
       1.378623977856e-04       5.889985662718e+02 
       1.533904233047e-04       6.521934483368e+02 
       1.693936162622e-04       7.160331532122e+02 
       1.859349250531e-04       7.831572913796e+02 
       2.030826290469e-04       8.523385454615e+02 
       2.209110744419e-04       9.257046370398e+02 
       2.395014697179e-04       9.986790991978e+02 
       2.589427392267e-04       1.077327338261e+03 
       2.793324289434e-04       1.157307055721e+03 
       3.007776519329e-04       1.243249237380e+03 
       3.233960521066e-04       1.331701665304e+03 
       3.473167527142e-04       1.426002761106e+03 
       3.726812401350e-04       1.525456573971e+03 
       3.996441134632e-04       1.630752329196e+03 
       4.283736060985e-04       1.742415141120e+03 
       4.590517578195e-04       1.861442192760e+03 
       4.918740867457e-04       1.988005956275e+03 
       5.270485842134e-04       2.122934383519e+03 
       5.647938385327e-04       2.267401039622e+03 
       6.053360953229e-04       2.421304677395e+03 
       6.489050944444e-04       2.586392555505e+03 
       6.957285986579e-04       2.762518172731e+03 
       7.460256557349e-04       2.951108323087e+03 
       7.999988132184e-04       3.150930593401e+03 
       8.578257172050e-04       3.365449752475e+03 
       9.196507376956e-04       3.591507761071e+03 
       9.855774206928e-04       3.831215844267e+03 
       1.055662614001e-03       4.085910830193e+03 
       1.129913008104e-03       4.350231177640e+03 
       1.208284571282e-03       4.628667557658e+03 
       1.290684983131e-03       4.918277380588e+03 
       1.376978766264e-03       5.220366372392e+03 
       1.466994477277e-03       5.530084426484e+03 
       1.560533118373e-03       5.689025375406e+03 
       1.657376897696e-03       6.176722459242e+03 
       1.757297578429e-03       6.328999845788e+03 
       1.860063860465e-03       6.846594586773e+03 
       1.965447471963e-03       7.191106369015e+03 
       2.073227860840e-03       7.534463661628e+03 
       2.183195538815e-03       7.887486174744e+03 
       2.295154234279e-03       8.239456356208e+03 
       2.408922060925e-03       8.589405545561e+03 
       2.524331919647e-03       8.937170497115e+03 
       2.641231336033e-03       9.060520262037e+03 
       2.759481907115e-03       9.384255652864e+03 
       2.878958497677e-03       9.739895875431e+03 
       2.999548293992e-03       1.008084881200e+04 
       3.121149794323e-03       1.076424046436e+04 
       3.243671791945e-03       1.111055756708e+04 
       3.367032388013e-03       1.108962221845e+04 
       3.491158057614e-03       1.143249935909e+04 
       3.615982782220e-03       1.213188479994e+04 
       3.741447254600e-03       1.246572411010e+04 
       3.867498157385e-03       1.279597341894e+04 
       3.994087513355e-03       1.303723816029e+04 
       4.121172103552e-03       1.336656076767e+04 
       4.248712948296e-03       1.369261321649e+04 
       4.376674845675e-03       1.401336334692e+04 
       4.505025962002e-03       1.429839671903e+04 
       4.633737468894e-03       1.464086763065e+04 
       4.762783221926e-03       1.489326828689e+04 
       4.892139476197e-03       1.519454139886e+04 
       5.021784634574e-03       1.550138807140e+04 
       5.151699024786e-03       1.587937127139e+04 
       5.281864701963e-03       1.608056996231e+04 
       5.412265273574e-03       1.637475447106e+04 
       5.542885744109e-03       1.665621728099e+04 
       5.673712377112e-03       1.693427761410e+04 
       5.804732572514e-03       1.720794419456e+04 
       5.935934757426e-03       1.747784715048e+04 
       6.067308288800e-03       1.773638353919e+04 
       6.198843366558e-03       1.800063710569e+04 
       6.330530955956e-03       1.829327681377e+04 
       6.462362718116e-03       1.850625525076e+04 
       6.594330947773e-03       1.875173156148e+04 
       6.726428517423e-03       1.899261873192e+04 
       6.858648827135e-03       1.923422293544e+04 
       6.990985759397e-03       1.937512534148e+04 
       7.123433638436e-03       1.969659594359e+04 
       7.255987193526e-03       1.991955658667e+04 
       7.388641525830e-03       2.014851914250e+04 
       7.521392078421e-03       1.968932163282e+04 
       7.654234609127e-03       1.994732077767e+04 
       7.787165165906e-03       2.019764599315e+04 
       7.920180064492e-03       2.044063488820e+04 
       8.053275868069e-03       2.067664370871e+04 
       8.186449368782e-03       2.090597847558e+04 
       8.319697570879e-03       2.112893906708e+04 
       8.453017675343e-03       2.134580781657e+04 
       8.586407065854e-03       2.155682642223e+04 
       8.719863295953e-03       2.176222910606e+04 
       8.853384077300e-03       2.196222641059e+04 
       8.986967268914e-03       2.215701431254e+04 
       9.120610867306e-03       2.234678297422e+04 
       9.254312997425e-03       2.253168623783e+04 
       9.388071904335e-03       2.271187450978e+04 
       9.521885945563e-03       2.288748740476e+04 
       9.655753584058e-03       2.305864998784e+04 
       9.789673381704e-03       2.322546666621e+04 
       9.923643993337e-03       2.338804380266e+04 
       1.005766416123e-02       2.354649003367e+04 
       1.019173270998e-02       2.370090353285e+04 
       1.032584854183e-02       2.385138776984e+04 
       1.046001063230e-02       2.399804437373e+04 
       1.059421802614e-02       2.414097618497e+04 
       1.072846983363e-02       2.428024923082e+04 
       1.086276522712e-02       2.441595849821e+04 
       1.099710343780e-02       2.454817688662e+04 
       1.113148375278e-02       2.392604567229e+04 
       1.126590551227e-02       2.407265036970e+04 
       1.140036810711e-02       2.423065688291e+04 
       1.153487097629e-02       2.438324118092e+04 
       1.166941360486e-02       2.453071261331e+04 
       1.180399552179e-02       2.467316391166e+04 
       1.193861629812e-02       2.481075862612e+04 
       1.207327554516e-02       2.494373611057e+04 
       1.220797291288e-02       2.507225437925e+04 
       1.234270808837e-02       2.519635233616e+04 
       1.247748079440e-02       2.531624378990e+04 
       1.261229078815e-02       2.543198686543e+04 
       1.274713785993e-02       2.554381778075e+04 
       1.288202183210e-02       2.565173007618e+04 
       1.301694255797e-02       2.575589061911e+04 
       1.315189992084e-02       2.585633258900e+04 
       1.328689383311e-02       2.595325297512e+04 
       1.342192423542e-02       2.604671577391e+04 
       1.355699109586e-02       2.613673873872e+04 
       1.369209440930e-02       2.622343325292e+04 
       1.382723419669e-02       2.630697504104e+04 
       1.396241050447e-02       2.638729609438e+04 
       1.409762340399e-02       2.646454379117e+04 
       1.423287299102e-02       2.653880269792e+04 
       1.436815938526e-02       2.661008711286e+04 
       1.450348272995e-02       2.667849096456e+04 
       1.463884319142e-02       2.674405290924e+04 
       1.477424095880e-02       2.680682028698e+04 
       1.490967624368e-02       2.686687262385e+04 
       1.504514927982e-02       2.692426976869e+04 
       1.518066032290e-02       2.697909224335e+04 
       1.531620965033e-02       2.703138545256e+04 
       1.545179756105e-02       2.708111057283e+04 
       1.558742437533e-02       2.712834858014e+04 
       1.572309043470e-02       2.717318703896e+04 
       1.585879610179e-02       2.721565745557e+04 
       1.599454176028e-02       2.725581240904e+04 
       1.613032781481e-02       2.729362642592e+04 
       1.626615469100e-02       2.732921321147e+04 
       1.640202283535e-02       2.736256736317e+04 
       1.653793271534e-02       2.739376256935e+04 
       1.667388481939e-02       2.742279305025e+04 
       1.680987965694e-02       2.744972080111e+04 
       1.694591775852e-02       2.747457780584e+04 
       1.708199967584e-02       2.749742923469e+04 
       1.721812598190e-02       2.751824700342e+04 
       1.735429727108e-02       2.753707576250e+04 
       1.749051415934e-02       2.755402659128e+04 
       1.762677728437e-02       2.756902102582e+04 
       1.776308730573e-02       2.758217282317e+04 
       1.789944490511e-02       2.759345006257e+04 
       1.803585078648e-02       2.760292263489e+04 
       1.817230567639e-02       2.761057537708e+04 
       1.830881032418e-02       2.761651641752e+04 
       1.844536550225e-02       2.762072476473e+04 
       1.858197200634e-02       2.762317766240e+04 
       1.871863065587e-02       2.762397012070e+04 
       1.885534229421e-02       2.762311656913e+04 
       1.899210778903e-02       2.762066877181e+04 
       1.912892803267e-02       2.761658957791e+04 
       1.926580394249e-02       2.761091841764e+04 
       1.940273646125e-02       2.760368560669e+04 
       1.953972655753e-02       2.759499817586e+04 
       1.967677522615e-02       2.758472676114e+04 
       1.981388348861e-02       2.757300884340e+04 
       1.995105239350e-02       2.755987713614e+04 
       2.008828301707e-02       2.754524913320e+04 
       2.022557646360e-02       2.752926017612e+04 
       2.036293386604e-02       2.751183518889e+04 
       2.050035638641e-02       2.749308760798e+04 
       2.063784521647e-02       2.747296352115e+04 
       2.077540157819e-02       2.745155436454e+04 
       2.091302672439e-02       2.742883673357e+04 
       2.105072193934e-02       2.740486632770e+04 
       2.118848853939e-02       2.737953705760e+04 
       2.132632787360e-02       2.735306081500e+04 
       2.146424132443e-02       2.732533135415e+04 
       2.160223030843e-02       2.729642029181e+04 
       2.174029627695e-02       2.726634474695e+04 
       2.187844071689e-02       2.723506306963e+04 
       2.201666515145e-02       2.720268435139e+04 
       2.215497114092e-02       2.716914719572e+04 
       2.229336028349e-02       2.713454951164e+04 
       2.243183421610e-02       2.709886467310e+04 
       2.257039461528e-02       2.706215733563e+04 
       2.270904319807e-02       2.702434267534e+04 
       2.284778172292e-02       2.698548246650e+04 
       2.298661199062e-02       2.694566616952e+04 
       2.312553584532e-02       2.690481034206e+04 
       2.326455517551e-02       2.686307364288e+04 
       2.340367191503e-02       2.682028175328e+04 
       2.354288804422e-02       2.677665711474e+04 
       2.368220559093e-02       2.673196959825e+04 
       2.382162663172e-02       2.668646840310e+04 
       2.396115329303e-02       2.664009270899e+04 
       2.410078775234e-02       2.659279276644e+04 
       2.424053223949e-02       2.654469072601e+04 
       2.438038903789e-02       2.649569606513e+04 
       2.452036048592e-02       2.644590985358e+04 
       2.466044897825e-02       2.639535302659e+04 
       2.480065696724e-02       2.634391827099e+04 
       2.494098696447e-02       2.629178801798e+04 
       2.508144154216e-02       2.623886491764e+04 
       2.522202333475e-02       2.618519291328e+04 
       2.536273504053e-02       2.613077112301e+04 
       2.550357942325e-02       2.607569476768e+04 
       2.564455931382e-02       2.601986024103e+04 
       2.578567761212e-02       2.596337110950e+04 
       2.592693728876e-02       2.590622217909e+04 
       2.606834138700e-02       2.584837569833e+04 
       2.620989302464e-02       2.578991020004e+04 
       2.635159539607e-02       2.573080884311e+04 
       2.649345177431e-02       2.567104393793e+04 
       2.663546551315e-02       2.561080464225e+04 
       2.677764004935e-02       2.554985691467e+04 
       2.691997890494e-02       2.548840188270e+04 
       2.706248568958e-02       2.542636140034e+04 
       2.720516410298e-02       2.536373905805e+04 
       2.734801793743e-02       2.530065328874e+04 
       2.749105108043e-02       2.523698021200e+04 
       2.763426751735e-02       2.517279970493e+04 
       2.777767133427e-02       2.510811442403e+04 
       2.792126672086e-02       2.504295465299e+04 
       2.806505797336e-02       2.497733990723e+04 
       2.820904949767e-02       2.491124461594e+04 
       2.835324581263e-02       2.484467005351e+04 
       2.849765155328e-02       2.477768074957e+04 
       2.864227147433e-02       2.471030066518e+04 
       2.878711045375e-02       2.464247009465e+04 
       2.893217349648e-02       2.457419856973e+04 
       2.907746573825e-02       2.450555929407e+04 
       2.922299244958e-02       2.443651946446e+04 
       2.936875903995e-02       2.436713109998e+04 
       2.951477106205e-02       2.429738239030e+04 
       2.966103421627e-02       2.422722308954e+04 
       2.980755435531e-02       2.415679005794e+04 
       2.995433748901e-02       2.408597439926e+04 
       3.010138978936e-02       2.401483891116e+04 
       3.024871759566e-02       2.394339676653e+04 
       3.039632741994e-02       2.387164712801e+04 
       3.054422595260e-02       2.379961356832e+04 
       3.069242006821e-02       2.372728490736e+04 
       3.084091683164e-02       2.365467086713e+04 
       3.098972350436e-02       2.358177051360e+04 
       3.113884755104e-02       2.350858766984e+04 
       3.128829664641e-02       2.343523154297e+04 
       3.143807868245e-02       2.336160842709e+04 
       3.158820177579e-02       2.328770968190e+04 
       3.173867427554e-02       2.321361240290e+04 
       3.188950477140e-02       2.313927984488e+04 
       3.204070210207e-02       2.306474897435e+04 
       3.219227536415e-02       2.298997700474e+04 
       3.234423392133e-02       2.291504047453e+04 
       3.249658741405e-02       2.283991269204e+04 
       3.264934576955e-02       2.276464178040e+04 
       3.280251921242e-02       2.268914215143e+04 
       3.295611827558e-02       2.261344911003e+04 
       3.311015381184e-02       2.253759082849e+04 
       3.326463700596e-02       2.246162657215e+04 
       3.341957938722e-02       2.238554350777e+04 
       3.357499284274e-02       2.230923566741e+04 
       3.373088963125e-02       2.223281426786e+04 
       3.388728239769e-02       2.215623813552e+04 
       3.404418418845e-02       2.207950527539e+04 
       3.420160846734e-02       2.200272997878e+04 
       3.435956913242e-02       2.192578536752e+04 
       3.451808053367e-02       2.184878821310e+04 
       3.467715749147e-02       2.177160500893e+04 
       3.483681531617e-02       2.169435627132e+04 
       3.499706982858e-02       2.161699841506e+04 
       3.515793738157e-02       2.153962654836e+04 
       3.531943488280e-02       2.146211687567e+04 
       3.548157981870e-02       2.138437868973e+04 
       3.564439027975e-02       2.130667662793e+04 
       3.580788498706e-02       2.122895309637e+04 
       3.597208332057e-02       2.115111140901e+04 
       3.613700534870e-02       2.107318396127e+04 
       3.630267185977e-02       2.099516111355e+04 
       3.646910439513e-02       2.091708736155e+04 
       3.663632528431e-02       2.083900099239e+04 
       3.680435768217e-02       2.076078969076e+04 
       3.697322560823e-02       2.068252951387e+04 
       3.714295398842e-02       2.060419762672e+04 
       3.731356869935e-02       2.052582045438e+04 
       3.748509661526e-02       2.044740814783e+04 
       3.765756565789e-02       2.036900509140e+04 
       3.783100484957e-02       2.029044164496e+04 
       3.800544436959e-02       2.021185878672e+04 
       3.818091561425e-02       2.013321443053e+04 
       3.835745126086e-02       2.005456304492e+04 
       3.853508533590e-02       1.997583214108e+04 
       3.871385328780e-02       1.989705715388e+04 
       3.889379206470e-02       1.981824285810e+04 
       3.907494019743e-02       1.973936986211e+04 
       3.925733788842e-02       1.966041705800e+04 
       3.944102710680e-02       1.958146264858e+04 
       3.962605169031e-02       1.950242351956e+04 
       3.981245745470e-02       1.942335545926e+04 
       4.000029231109e-02       1.934419457282e+04 
       4.018960639213e-02       1.926499413188e+04 
       4.038045218775e-02       1.918567169426e+04 
       4.057288469131e-02       1.910635723273e+04 
       4.076696155719e-02       1.902696779357e+04 
       4.096274327083e-02       1.894746835073e+04 
       4.116029333252e-02       1.886791198319e+04 
       4.135967845608e-02       1.878826193979e+04 
       4.156096878418e-02       1.870856221807e+04 
       4.176423812167e-02       1.862872140831e+04 
       4.196956418901e-02       1.854881455324e+04 
       4.217702889770e-02       1.846878760461e+04 
       4.238671865015e-02       1.838867344129e+04 
       4.259872466648e-02       1.830839668352e+04 
       4.281314334132e-02       1.822803617639e+04 
       4.303007663385e-02       1.814750962803e+04 
       4.324963249479e-02       1.806684861050e+04 
       4.347192533467e-02       1.798609634683e+04 
       4.369707653810e-02       1.790505840229e+04 
       4.392521502963e-02       1.782388903060e+04 
       4.415647789727e-02       1.774257076824e+04 
       4.439101108098e-02       1.766100257591e+04 
       4.462897013408e-02       1.757925131683e+04 
       4.487052106715e-02       1.749725132453e+04 
       4.511584128501e-02       1.741504464805e+04 
       4.536512062936e-02       1.733254392495e+04 
       4.561856254125e-02       1.724979380502e+04 
       4.587638536030e-02       1.716671184362e+04 
       4.613882377979e-02       1.708331678842e+04 
       4.640613048042e-02       1.699954841797e+04 
       4.667857796914e-02       1.691545250337e+04 
       4.695646065413e-02       1.683099915070e+04 
       4.724009719240e-02       1.674607893019e+04 
       4.752983315339e-02       1.666068346797e+04 
       4.782604404981e-02       1.657484593455e+04 
       4.812913879652e-02       1.648846107316e+04 
       4.843956367055e-02       1.640153617225e+04 
       4.875780685949e-02       1.631397246925e+04 
       4.908440370330e-02       1.622581286632e+04 
       4.941994275688e-02       1.613690037863e+04 
       4.976507282726e-02       1.604725630466e+04 
       5.012051117367e-02       1.595678948732e+04 
       5.048705310027e-02       1.586545366373e+04 
       5.086558322444e-02       1.577309625086e+04 
       5.125708876972e-02       1.567979124450e+04 
       5.166267531615e-02       1.558534655770e+04 
       5.208358554725e-02       1.548956399870e+04 
       5.252122166734e-02       1.539250429741e+04 
       5.297717233519e-02       1.529393135258e+04 
       5.345324517845e-02       1.519365663971e+04 
       5.395150623296e-02       1.509160962614e+04 
       5.447432800488e-02       1.498748822828e+04 
       5.502444830089e-02       1.488109665156e+04 
       5.560504252833e-02       1.477222789282e+04 
       5.621981284382e-02       1.466038719926e+04 
       5.687309831963e-02       1.454525827345e+04 
       5.757001114778e-02       1.442631179296e+04 
       5.831660466249e-02       1.430295035190e+04 
       5.912007927732e-02       1.417440015466e+04 
       5.998903154321e-02       1.403967158933e+04 
       6.093374790592e-02       1.389758362363e+04 
       6.196653544444e-02       1.374643187992e+04 
       6.310206162849e-02       1.358433726926e+04 
       6.435763530872e-02       1.340835218584e+04 
       6.575328997573e-02       1.321490659350e+04 
       6.731141860990e-02       1.299932523429e+04 
