# dimensionless total [l(l+1)/2pi] C_l's
# for l=2 to 2500, i.e. number of multipoles equal to 2499
#
# -> if you prefer output in CAMB/HealPix/LensPix units/order, set 'format' to 'camb' in input file
# -> if you don't want to see such a header, set 'headers' to 'no' in input file
# -> for CMB lensing (phi), these are C_l^phi-phi for the lensing potential.
#    Remember the conversion factors:
#    C_l^dd (deflection) = l(l+1) C_l^phi-phi
#    C_l^gg (shear/convergence) = 1/4 (l(l+1))^2 C_l^phi-phi
#
# 1:l     2:TT                     3:EE                     4:TE                     5:BB                     6:phiphi                 7:TPhi                   8:Ephi               
    2       2.005869935562e-10       7.634415752613e-15       8.016672698471e-13       0.000000000000e+00       7.932823786598e-09       3.007843587041e-10      -2.482396524793e-12 
    3       1.897960165931e-10       9.893423062852e-15       8.370536084220e-13       0.000000000000e+00       5.030876938664e-09       3.052131066783e-10      -1.756899298153e-12 
    4       1.743018818078e-10       8.817246229080e-15       7.252585827538e-13       0.000000000000e+00       3.487141077970e-09       2.477289340006e-10      -1.150166789742e-12 
    5       1.531691085169e-10       6.078056551092e-15       5.616179674835e-13       0.000000000000e+00       2.536685184122e-09       1.758154800895e-10      -6.973430009625e-13 
    6       1.345577451176e-10       3.430033822568e-15       4.051981110448e-13       0.000000000000e+00       1.905456451071e-09       1.124294395032e-10      -3.594259385421e-13 
    7       1.231539895468e-10       1.725813338746e-15       2.817704588747e-13       0.000000000000e+00       1.474070169281e-09       6.664006652866e-11      -1.239302488544e-13 
    8       1.160358282762e-10       9.365768233486e-16       1.950234112794e-13       0.000000000000e+00       1.175142133676e-09       3.656518444753e-11       1.582105679173e-14 
    9       1.122561387043e-10       6.642243131474e-16       1.410587082626e-13       0.000000000000e+00       9.643859025675e-10       1.910491127296e-11       7.451941303015e-14 
   10       1.116961494762e-10       5.654538850013e-16       1.136879746734e-13       0.000000000000e+00       8.118926059863e-10       1.123924732644e-11       7.447126205482e-14 
   11       1.138161935230e-10       4.946161336494e-16       1.053730377596e-13       0.000000000000e+00       6.830453553415e-10       9.276027828289e-12       4.102742308865e-14 
   12       1.154641896825e-10       4.405426508642e-16       1.084365637679e-13       0.000000000000e+00       5.954598237215e-10       7.393424808318e-12      -4.183166514178e-15 
   13       1.149621290568e-10       4.186104575349e-16       1.167976921883e-13       0.000000000000e+00       5.248809970880e-10       4.935948458658e-12      -4.417923859899e-14 
   14       1.155101046558e-10       4.197204259848e-16       1.261701358189e-13       0.000000000000e+00       4.667255491511e-10       3.367353867063e-12      -6.971516502704e-14 
   15       1.179984159992e-10       4.207262932322e-16       1.337765993323e-13       0.000000000000e+00       4.180861726170e-10       3.218597579393e-12      -7.876040867226e-14 
   16       1.197954280332e-10       4.108714377891e-16       1.389779892734e-13       0.000000000000e+00       3.754712410424e-10       2.364169614917e-12      -7.412237457787e-14 
   17       1.209284914687e-10       3.996313826818e-16       1.425940966041e-13       0.000000000000e+00       3.339913204558e-10       3.949926874970e-13      -5.999947505463e-14 
   18       1.227442076098e-10       4.060561147849e-16       1.457004138136e-13       0.000000000000e+00       3.014128277949e-10      -7.723437964615e-14      -4.298016230663e-14 
   19       1.250743083973e-10       4.389912509458e-16       1.493345516550e-13       0.000000000000e+00       2.767691299683e-10       4.913186511016e-13      -2.751539114748e-14 
   20       1.271863106247e-10       5.019326347447e-16       1.545542808680e-13       0.000000000000e+00       2.540944912828e-10       4.246415563610e-13      -1.726840932657e-14 
   21       1.292528972667e-10       5.913828585571e-16       1.616831954206e-13       0.000000000000e+00       2.330070042251e-10       3.431309741543e-14      -1.289138811201e-14 
   22       1.316643217462e-10       7.003998136111e-16       1.706133250706e-13       0.000000000000e+00       2.145947474376e-10       2.060811879304e-13      -1.351247691005e-14 
   23       1.341901955061e-10       8.262026725293e-16       1.807123941911e-13       0.000000000000e+00       1.985922798067e-10       5.897730477122e-13      -1.735886016566e-14 
   24       1.364434660099e-10       9.666505416760e-16       1.910439526994e-13       0.000000000000e+00       1.841202410403e-10       5.188126621120e-13      -2.202078650939e-14 
   25       1.386910982160e-10       1.119212505081e-15       2.009066172216e-13       0.000000000000e+00       1.710195549606e-10       3.013832623766e-13      -2.574177927923e-14 
   26       1.413286055688e-10       1.281547892267e-15       2.096523660796e-13       0.000000000000e+00       1.592200757217e-10       4.799480839118e-13      -2.705300708717e-14 
   27       1.441382943751e-10       1.455058020898e-15       2.169760385197e-13       0.000000000000e+00       1.485832204949e-10       8.204297183917e-13      -2.594749700688e-14 
   28       1.467330674113e-10       1.642650997085e-15       2.227414364037e-13       0.000000000000e+00       1.388803391116e-10       8.825057303335e-13      -2.301928991876e-14 
   29       1.491464481084e-10       1.847252638006e-15       2.271125046145e-13       0.000000000000e+00       1.300581776249e-10       6.935566804639e-13      -1.902592685494e-14 
   30       1.515630504631e-10       2.072247543357e-15       2.304296426114e-13       0.000000000000e+00       1.220329772834e-10       4.627067392404e-13      -1.497174883826e-14 
   31       1.541618953538e-10       2.320969584919e-15       2.330758253197e-13       0.000000000000e+00       1.146529338079e-10       4.014615109236e-13      -1.190785759923e-14 
   32       1.569563848841e-10       2.594211007191e-15       2.351747341599e-13       0.000000000000e+00       1.078815401196e-10       5.047671839318e-13      -1.008140476095e-14 
   33       1.598913964594e-10       2.891751915476e-15       2.367837471157e-13       0.000000000000e+00       1.016692076575e-10       6.870734742972e-13      -9.468190051979e-15 
   34       1.628972152980e-10       3.213187211567e-15       2.379155996420e-13       0.000000000000e+00       9.592749063936e-11       8.589653208403e-13      -9.927781811543e-15 
   35       1.659432648858e-10       3.558682014900e-15       2.383416041999e-13       0.000000000000e+00       9.062776567878e-11       1.003915057128e-12      -1.099865381167e-14 
   36       1.690003129234e-10       3.928450968745e-15       2.377131200856e-13       0.000000000000e+00       8.572924391008e-11       1.127761496159e-12      -1.201466162840e-14 
   37       1.720354066691e-10       4.322710875937e-15       2.356827923555e-13       0.000000000000e+00       8.116999515966e-11       1.235853484494e-12      -1.232502275404e-14 
   38       1.750474833911e-10       4.742241783842e-15       2.321606211445e-13       0.000000000000e+00       7.693863821865e-11       1.323340087134e-12      -1.190276887000e-14 
   39       1.780423163804e-10       5.188006468855e-15       2.271407146013e-13       0.000000000000e+00       7.302174201049e-11       1.381719368058e-12      -1.093492164155e-14 
   40       1.810224625165e-10       5.661002766826e-15       2.206342063594e-13       0.000000000000e+00       6.938196188918e-11       1.401366624773e-12      -9.664475464023e-15 
   41       1.839908343813e-10       6.162198753169e-15       2.126720891216e-13       0.000000000000e+00       6.596990461589e-11       1.375320547544e-12      -8.354467130448e-15 
   42       1.869637872036e-10       6.692308166190e-15       2.033120339343e-13       0.000000000000e+00       6.276938595110e-11       1.312254037542e-12      -7.156940142117e-15 
   43       1.899616115495e-10       7.251945194517e-15       1.926357448996e-13       0.000000000000e+00       5.976339295406e-11       1.227634807236e-12      -6.207749582778e-15 
   44       1.930047959382e-10       7.841682385787e-15       1.807487308662e-13       0.000000000000e+00       5.692029603166e-11       1.140455686489e-12      -5.663693773376e-15 
   45       1.961095798236e-10       8.462057406766e-15       1.677412419110e-13       0.000000000000e+00       5.420542278216e-11       1.068687759129e-12      -5.650899263244e-15 
   46       1.992733403757e-10       9.113601947216e-15       1.535541689996e-13       0.000000000000e+00       5.162256082474e-11       1.013525211248e-12      -6.089065920164e-15 
   47       2.024846108210e-10       9.796816971960e-15       1.380752071846e-13       0.000000000000e+00       4.918294606011e-11       9.707866023143e-13      -6.816489049104e-15 
   48       2.057266437871e-10       1.051216203305e-14       1.211746754882e-13       0.000000000000e+00       4.689325424115e-11       9.351994708835e-13      -7.636259293190e-15 
   49       2.089770299298e-10       1.126005317421e-14       1.027044603171e-13       0.000000000000e+00       4.475520567758e-11       9.003358670093e-13      -8.314293401585e-15 
   50       2.122150193130e-10       1.204084443834e-14       8.252974080788e-14       0.000000000000e+00       4.276553190368e-11       8.601673135811e-13      -8.642089483642e-15 
   51       2.154467131758e-10       1.285477133404e-14       6.063676825486e-14       0.000000000000e+00       4.091678210046e-11       8.143768427637e-13      -8.649643071202e-15 
   52       2.186860509591e-10       1.370198840145e-14       3.705251581618e-14       0.000000000000e+00       3.919605227542e-11       7.643774156245e-13      -8.446920776154e-15 
   53       2.219476867567e-10       1.458258146879e-14       1.181492809567e-14       0.000000000000e+00       3.758427314295e-11       7.118299779354e-13      -8.165238096226e-15 
   54       2.252469704251e-10       1.549656478521e-14      -1.502659276389e-14       0.000000000000e+00       3.605583186259e-11       6.586552010050e-13      -7.958336041038e-15 
   55       2.285973041052e-10       1.644395813280e-14      -4.342996794867e-14       0.000000000000e+00       3.458537426401e-11       6.067901376006e-13      -7.964622799770e-15 
   56       2.320014860540e-10       1.742504716352e-14      -7.342336169801e-14       0.000000000000e+00       3.317105691463e-11       5.573605015302e-13      -8.180448049595e-15 
   57       2.354581833466e-10       1.844018271349e-14      -1.050570407600e-13       0.000000000000e+00       3.181640880955e-11       5.113233295291e-13      -8.557233060000e-15 
   58       2.389642495487e-10       1.948970673351e-14      -1.383857356987e-13       0.000000000000e+00       3.052356061134e-11       4.697058139193e-13      -9.037120518824e-15 
   59       2.425146035699e-10       2.057395253802e-14      -1.734689054614e-13       0.000000000000e+00       2.929314614749e-11       4.336071050681e-13      -9.552538107987e-15 
   60       2.461021085155e-10       2.169324505397e-14      -2.103710019466e-13       0.000000000000e+00       2.812420390782e-11       4.042001138482e-13      -1.002576207922e-14 
   61       2.497196187099e-10       2.284778932869e-14      -2.491457866048e-13       0.000000000000e+00       2.701484845046e-11       3.823894886946e-13      -1.038578620455e-14 
   62       2.533669317614e-10       2.403730624672e-14      -2.897845680336e-13       0.000000000000e+00       2.596468356825e-11       3.676917581467e-13      -1.062434059091e-14 
   63       2.570451890856e-10       2.526131511530e-14      -3.322567623589e-13       0.000000000000e+00       2.497275845390e-11       3.591058788232e-13      -1.075172967127e-14 
   64       2.607547941181e-10       2.651923495874e-14      -3.765245792849e-13       0.000000000000e+00       2.403677298193e-11       3.554259535015e-13      -1.078074681643e-14 
   65       2.644953599608e-10       2.781038122190e-14      -4.225427806448e-13       0.000000000000e+00       2.315300363462e-11       3.552321242571e-13      -1.072678699724e-14 
   66       2.682656570293e-10       2.913396247362e-14      -4.702584389516e-13       0.000000000000e+00       2.231622942811e-11       3.568814656033e-13      -1.060795944672e-14 
   67       2.720635606993e-10       3.048907711016e-14      -5.196106959485e-13       0.000000000000e+00       2.151965783838e-11       3.584988776299e-13      -1.044520032233e-14 
   68       2.758870201747e-10       3.187484759600e-14      -5.705441063813e-13       0.000000000000e+00       2.075659941677e-11       3.583942648315e-13      -1.025854633407e-14 
   69       2.797373100841e-10       3.329086214130e-14      -6.230523487358e-13       0.000000000000e+00       2.002605124062e-11       3.564325888243e-13      -1.005482700254e-14 
   70       2.836163467214e-10       3.473681700904e-14      -6.771429783907e-13       0.000000000000e+00       1.932811694519e-11       3.529263399247e-13      -9.837669461214e-15 
   71       2.875256993553e-10       3.621238711318e-14      -7.328247301534e-13       0.000000000000e+00       1.866232931168e-11       3.482355775541e-13      -9.611131051300e-15 
   72       2.914665639951e-10       3.771722623972e-14      -7.901076242585e-13       0.000000000000e+00       1.802762091677e-11       3.427697258260e-13      -9.379713798960e-15 
   73       2.954397371556e-10       3.925096726768e-14      -8.490030723671e-13       0.000000000000e+00       1.742229478221e-11       3.369893691318e-13      -9.148378892461e-15 
   74       2.994455896219e-10       4.081322239014e-14      -9.095239835653e-13       0.000000000000e+00       1.684399502430e-11       3.314080477284e-13      -8.922561159353e-15 
   75       3.034840402150e-10       4.240358333524e-14      -9.716848703629e-13       0.000000000000e+00       1.628967750353e-11       3.265940533244e-13      -8.708183543642e-15 
   76       3.075548633986e-10       4.402154383894e-14      -1.035492683213e-12       0.000000000000e+00       1.575636337296e-11       3.230448423640e-13      -8.510412325161e-15 
   77       3.116587348545e-10       4.566625025320e-14      -1.100917150181e-12       0.000000000000e+00       1.524362324542e-11       3.207798673799e-13      -8.329628716420e-15 
   78       3.157963297953e-10       4.733670565023e-14      -1.167915196021e-12       0.000000000000e+00       1.475149480702e-11       3.196764137305e-13      -8.164745556167e-15 
   79       3.199679869613e-10       4.903184218524e-14      -1.236439651067e-12       0.000000000000e+00       1.427972702422e-11       3.195895916837e-13      -8.014390236638e-15 
   80       3.241736892315e-10       5.075051972309e-14      -1.306439167116e-12       0.000000000000e+00       1.382776684744e-11       3.203515199265e-13      -7.876893358632e-15 
   81       3.284130442342e-10       5.249152446509e-14      -1.377858133302e-12       0.000000000000e+00       1.339474591451e-11       3.217705090743e-13      -7.750277386582e-15 
   82       3.326852649581e-10       5.425356757566e-14      -1.450636591981e-12       0.000000000000e+00       1.297946725421e-11       3.236302451802e-13      -7.632245303629e-15 
   83       3.369891503628e-10       5.603528380912e-14      -1.524710154607e-12       0.000000000000e+00       1.258039198986e-11       3.256889732446e-13      -7.520169266692e-15 
   84       3.413235465179e-10       5.783530215773e-14      -1.600016637549e-12       0.000000000000e+00       1.219600771422e-11       3.277222681507e-13      -7.411734625975e-15 
   85       3.456888603286e-10       5.965247426094e-14      -1.676517417758e-12       0.000000000000e+00       1.182603290687e-11       3.296612828202e-13      -7.307019504659e-15 
   86       3.500857623713e-10       6.148568151981e-14      -1.754179479647e-12       0.000000000000e+00       1.147038873365e-11       3.314760282383e-13      -7.206740772026e-15 
   87       3.545147175310e-10       6.333376628185e-14      -1.832969038326e-12       0.000000000000e+00       1.112882834750e-11       3.331337410620e-13      -7.111629005725e-15 
   88       3.589759736877e-10       6.519553167820e-14      -1.912851568418e-12       0.000000000000e+00       1.080093000664e-11       3.345987996917e-13      -7.022428161377e-15 
   89       3.634695504039e-10       6.706974146083e-14      -1.993791832887e-12       0.000000000000e+00       1.048609019270e-11       3.358326403417e-13      -6.939895242173e-15 
   90       3.679952276112e-10       6.895511983967e-14      -2.075753911848e-12       0.000000000000e+00       1.018351672893e-11       3.367936731121e-13      -6.864799968475e-15 
   91       3.725525342971e-10       7.085035131978e-14      -2.158701231393e-12       0.000000000000e+00       9.892221898368e-12       3.374371980593e-13      -6.797924447416e-15 
   92       3.771407371924e-10       7.275408053855e-14      -2.242596592409e-12       0.000000000000e+00       9.611015561999e-12       3.377153212674e-13      -6.740062842503e-15 
   93       3.817591179496e-10       7.466492181382e-14      -2.327400155675e-12       0.000000000000e+00       9.338782875379e-12       3.375907904064e-13      -6.691752339355e-15 
   94       3.864078769393e-10       7.658148978471e-14      -2.413062987900e-12       0.000000000000e+00       9.075380165288e-12       3.370810640129e-13      -6.652420475104e-15 
   95       3.910873451013e-10       7.850237309957e-14      -2.499532593776e-12       0.000000000000e+00       8.820861696133e-12       3.362207458969e-13      -6.621108359683e-15 
   96       3.957977003087e-10       8.042612508647e-14      -2.586754873970e-12       0.000000000000e+00       8.575204141772e-12       3.350483619306e-13      -6.596723988104e-15 
   97       4.005389600160e-10       8.235126372368e-14      -2.674674125887e-12       0.000000000000e+00       8.338303610331e-12       3.336064671902e-13      -6.578038221600e-15 
   98       4.053109739051e-10       8.427627161015e-14      -2.763233044437e-12       0.000000000000e+00       8.109972669010e-12       3.319417530975e-13      -6.563680768771e-15 
   99       4.101134165331e-10       8.619959593597e-14      -2.852372722800e-12       0.000000000000e+00       7.889937368891e-12       3.301051545614e-13      -6.552136166738e-15 
  100       4.149457799787e-10       8.811964845285e-14      -2.942032653193e-12       0.000000000000e+00       7.677834269750e-12       3.281519571200e-13      -6.541739762280e-15 
  101       4.198073664897e-10       9.003480544455e-14      -3.032150727637e-12       0.000000000000e+00       7.473207464865e-12       3.261419040818e-13      -6.530673692989e-15 
  102       4.246972811296e-10       9.194340769743e-14      -3.122663238719e-12       0.000000000000e+00       7.275505605827e-12       3.241393036676e-13      -6.516962868412e-15 
  103       4.296144244248e-10       9.384376047085e-14      -3.213504880361e-12       0.000000000000e+00       7.084078927345e-12       3.222131361524e-13      -6.498470951199e-15 
  104       4.345577492259e-10       9.573417756833e-14      -3.304610161263e-12       0.000000000000e+00       6.898326137258e-12       3.204235348854e-13      -6.473372245966e-15 
  105       4.395270866479e-10       9.761312039479e-14      -3.395917861043e-12       0.000000000000e+00       6.718164093118e-12       3.187789187431e-13      -6.441648620159e-15 
  106       4.445224185135e-10       9.947907771631e-14      -3.487367180284e-12       0.000000000000e+00       6.543616320818e-12       3.172732416805e-13      -6.403788244448e-15 
  107       4.495436187064e-10       1.013305236865e-13      -3.578896397709e-12       0.000000000000e+00       6.374667502785e-12       3.158990596617e-13      -6.360328938562e-15 
