# dimensionless total [l(l+1)/2pi] C_l's
# for l=2 to 2500, i.e. number of multipoles equal to 2499
#
# -> if you prefer output in CAMB/HealPix/LensPix units/order, set 'format' to 'camb' in input file
# -> if you don't want to see such a header, set 'headers' to 'no' in input file
# -> for CMB lensing (phi), these are C_l^phi-phi for the lensing potential.
#    Remember the conversion factors:
#    C_l^dd (deflection) = l(l+1) C_l^phi-phi
#    C_l^gg (shear/convergence) = 1/4 (l(l+1))^2 C_l^phi-phi
#
# 1:l     2:TT                     3:EE                     4:TE                     5:BB                     6:phiphi                 7:TPhi                   8:Ephi               
    2       1.483888480478e-10       6.753127481610e-15       6.112091054335e-13       0.000000000000e+00       7.673511047709e-09       3.079620706050e-10      -2.350749563198e-12 
    3       1.357408707382e-10       8.941178156289e-15       6.473944165980e-13       0.000000000000e+00       4.543733600928e-09       2.014311499267e-10      -1.888076498977e-12 
    4       1.265247416134e-10       8.098824366657e-15       5.808328743792e-13       0.000000000000e+00       3.098885763958e-09       1.457562694330e-10      -1.315333015011e-12 
    5       1.204589726923e-10       5.677388689741e-15       4.748303698573e-13       0.000000000000e+00       2.296909237775e-09       1.130170426088e-10      -8.039601924486e-13 
    6       1.166237364208e-10       3.267236766686e-15       3.639924826560e-13       0.000000000000e+00       1.790252733524e-09       9.130239950240e-11      -4.065621835682e-13 
    7       1.143754140885e-10       1.685759123685e-15       2.678876510124e-13       0.000000000000e+00       1.444006013958e-09       7.575951914308e-11      -1.331940456629e-13 
    8       1.131600480436e-10       9.440751930280e-16       1.947470011986e-13       0.000000000000e+00       1.194118861787e-09       6.397975151929e-11       2.689764076294e-14 
    9       1.127150421752e-10       6.859085999273e-16       1.458571294380e-13       0.000000000000e+00       1.005944579321e-09       5.474181040850e-11       9.570578622397e-14 
   10       1.128503120467e-10       5.861803394253e-16       1.183723650508e-13       0.000000000000e+00       8.598094889556e-10       4.747193674153e-11       1.003944452909e-13 
   11       1.134277556344e-10       5.029027508450e-16       1.073183499555e-13       0.000000000000e+00       7.328735398764e-10       4.246427038353e-11       6.848817681455e-14 
   12       1.143539631441e-10       4.289553438980e-16       1.070791000570e-13       0.000000000000e+00       6.408574679509e-10       3.752329147113e-11       2.282859670012e-14 
   13       1.154182524490e-10       3.885437629878e-16       1.126472141649e-13       0.000000000000e+00       5.652253068227e-10       3.316178266572e-11      -1.976147910721e-14 
   14       1.167112483250e-10       3.808263685861e-16       1.203679896339e-13       0.000000000000e+00       5.022210162838e-10       2.968729159441e-11      -4.925271935043e-14 
   15       1.183221478917e-10       3.845101566021e-16       1.279111869125e-13       0.000000000000e+00       4.490821047829e-10       2.685286379588e-11      -6.255346288486e-14 
   16       1.199784043508e-10       3.843619404162e-16       1.342131061454e-13       0.000000000000e+00       4.037758775061e-10       2.418604635002e-11      -6.144808329901e-14 
   17       1.216659207621e-10       3.836790221922e-16       1.393420032756e-13       0.000000000000e+00       3.648157360006e-10       2.173913974054e-11      -5.042531017797e-14 
   18       1.235371734524e-10       3.973998627962e-16       1.439492621017e-13       0.000000000000e+00       3.309721238635e-10       1.981273972026e-11      -3.534770508823e-14 
   19       1.255672384634e-10       4.339587777088e-16       1.488003832041e-13       0.000000000000e+00       3.017302396267e-10       1.824900070914e-11      -2.061835900347e-14 
   20       1.276122601794e-10       4.977256568770e-16       1.547100113836e-13       0.000000000000e+00       2.759824783848e-10       1.669652444994e-11      -1.035212776405e-14 
   21       1.296924413547e-10       5.857337198367e-16       1.620099335869e-13       0.000000000000e+00       2.533093748787e-10       1.522114304101e-11      -5.601376834304e-15 
   22       1.318506167141e-10       6.917466501253e-16       1.707365263416e-13       0.000000000000e+00       2.331443726514e-10       1.399722184310e-11      -5.926493235230e-15 
   23       1.340910438931e-10       8.141343834839e-16       1.804602592136e-13       0.000000000000e+00       2.152157152179e-10       1.298400385153e-11      -9.760253369177e-15 
   24       1.363840837044e-10       9.521565825543e-16       1.904895603203e-13       0.000000000000e+00       1.991274902023e-10       1.205889059280e-11      -1.482285504959e-14 
   25       1.387269317822e-10       1.104068526045e-15       2.002637195247e-13       0.000000000000e+00       1.847054156621e-10       1.119798322406e-11      -1.938752321034e-14 
   26       1.411109218762e-10       1.267890730324e-15       2.092243960977e-13       0.000000000000e+00       1.717022326359e-10       1.040224927247e-11      -2.192072205790e-14 
   27       1.435407209561e-10       1.444080589647e-15       2.170139807746e-13       0.000000000000e+00       1.599621899218e-10       9.678497939820e-12      -2.210475765439e-14 
   28       1.460149714899e-10       1.634180993988e-15       2.233857483404e-13       0.000000000000e+00       1.492792000154e-10       9.029913642580e-12      -2.015634130215e-14 
   29       1.485394535684e-10       1.840681004352e-15       2.284162217506e-13       0.000000000000e+00       1.395988435440e-10       8.453569778803e-12      -1.675358385125e-14 
   30       1.511090400884e-10       2.066794843224e-15       2.323476505844e-13       0.000000000000e+00       1.308186393068e-10       7.937850045181e-12      -1.292721665282e-14 
   31       1.537083517988e-10       2.315743607529e-15       2.354659402994e-13       0.000000000000e+00       1.227601691055e-10       7.466032182461e-12      -9.789521694961e-15 
   32       1.563430900557e-10       2.588496756077e-15       2.378918907644e-13       0.000000000000e+00       1.153791662614e-10       7.033825053811e-12      -7.711392623448e-15 
   33       1.590178322608e-10       2.885167406013e-15       2.397168507064e-13       0.000000000000e+00       1.086189455489e-10       6.637430233168e-12      -6.843317764523e-15 
   34       1.617299387211e-10       3.205711514387e-15       2.410004831132e-13       0.000000000000e+00       1.023798616641e-10       6.270603806713e-12      -7.221541113663e-15 
   35       1.644811029031e-10       3.550419707827e-15       2.415704314496e-13       0.000000000000e+00       9.662779082312e-11       5.931752881633e-12      -8.405673283829e-15 
   36       1.672680505590e-10       3.919572128357e-15       2.411479332675e-13       0.000000000000e+00       9.131499060698e-11       5.618824565859e-12      -9.697890012002e-15 
   37       1.700829248182e-10       4.313450597411e-15       2.394504249324e-13       0.000000000000e+00       8.637082255844e-11       5.328452144365e-12      -1.040279443407e-14 
   38       1.729283611174e-10       4.732863857219e-15       2.363768453962e-13       0.000000000000e+00       8.178259196940e-11       5.060263194204e-12      -1.043361388712e-14 
   39       1.758061729790e-10       5.178791019479e-15       2.318816143904e-13       0.000000000000e+00       7.753641976326e-11       4.813706499347e-12      -9.902229721765e-15 
   40       1.787125634943e-10       5.652243070270e-15       2.259255975146e-13       0.000000000000e+00       7.359272667762e-11       4.586728972124e-12      -8.960492416073e-15 
   41       1.816412015674e-10       6.154168609449e-15       2.184898474850e-13       0.000000000000e+00       6.990010793218e-11       4.376397352427e-12      -7.791271222512e-15 
   42       1.845950695516e-10       6.685130259244e-15       2.096210987780e-13       0.000000000000e+00       6.644778576469e-11       4.181325706982e-12      -6.571284552343e-15 
   43       1.875774820248e-10       7.245525649936e-15       1.994018595327e-13       0.000000000000e+00       6.322645358896e-11       3.999814811534e-12      -5.500940824548e-15 
   44       1.905884236594e-10       7.835669336122e-15       1.879397591554e-13       0.000000000000e+00       6.021251431214e-11       3.829086595467e-12      -4.817066759050e-15 
   45       1.936262205900e-10       8.455877781950e-15       1.753296655121e-13       0.000000000000e+00       5.737646890721e-11       3.666143792313e-12      -4.722287321536e-15 
   46       1.966939442367e-10       9.106766316553e-15       1.615233106968e-13       0.000000000000e+00       5.471375085288e-11       3.510845677792e-12      -5.143267487937e-15 
   47       1.997943489182e-10       9.789032509517e-15       1.464230131253e-13       0.000000000000e+00       5.222117675961e-11       3.363614476843e-12      -5.903602586127e-15 
   48       2.029278143219e-10       1.050337413612e-14       1.299166725076e-13       0.000000000000e+00       4.988764892451e-11       3.224548868067e-12      -6.788045018608e-15 
   49       2.060921242767e-10       1.125048939189e-14       1.118768760225e-13       0.000000000000e+00       4.769356739834e-11       3.093397381033e-12      -7.540325440238e-15 
   50       2.092839701145e-10       1.203098428281e-14       9.218653447645e-14       0.000000000000e+00       4.561671658683e-11       2.969712503922e-12      -7.930718192781e-15 
   51       2.125044550806e-10       1.284506466317e-14       7.082606802683e-14       0.000000000000e+00       4.365317277186e-11       2.853424039191e-12      -7.985413415292e-15 
   52       2.157547016283e-10       1.369276097576e-14       4.780834100590e-14       0.000000000000e+00       4.180105542233e-11       2.744375394428e-12      -7.815639172398e-15 
   53       2.190341206676e-10       1.457400971494e-14       2.315454655610e-14       0.000000000000e+00       4.005427213923e-11       2.642138804955e-12      -7.554435894290e-15 
   54       2.223402714955e-10       1.548864927303e-14      -3.105438725446e-15       0.000000000000e+00       3.840223540667e-11       2.545997235145e-12      -7.357759637122e-15 
   55       2.256702953083e-10       1.643653512788e-14      -3.094728869697e-14       0.000000000000e+00       3.683308239564e-11       2.455146185001e-12      -7.366561479512e-15 
   56       2.290259536515e-10       1.741792843051e-14      -6.039988263433e-14       0.000000000000e+00       3.534491994350e-11       2.369399279706e-12      -7.579466794463e-15 
   57       2.324095962847e-10       1.843319667549e-14      -9.150886759674e-14       0.000000000000e+00       3.393687693586e-11       2.288626262401e-12      -7.950399222496e-15 
   58       2.358226202135e-10       1.948270330263e-14      -1.243233161794e-13       0.000000000000e+00       3.260570243060e-11       2.212539122705e-12      -8.424425306996e-15 
   59       2.392653909274e-10       2.056680819295e-14      -1.588959402545e-13       0.000000000000e+00       3.134561889143e-11       2.140682565776e-12      -8.937337344331e-15 
   60       2.427371636382e-10       2.168586816469e-14      -1.952833047114e-13       0.000000000000e+00       3.014817542137e-11       2.072424481358e-12      -9.415236233973e-15 
   61       2.462368860248e-10       2.284012555828e-14      -2.335315983510e-13       0.000000000000e+00       2.900458515024e-11       2.007123478772e-12      -9.790654745982e-15 
   62       2.497659952084e-10       2.402934364561e-14      -2.736297307972e-13       0.000000000000e+00       2.791368251118e-11       1.944696997263e-12      -1.005610009335e-14 
   63       2.533261116813e-10       2.525308989221e-14      -3.155460390579e-13       0.000000000000e+00       2.687549974907e-11       1.885164381621e-12      -1.022184401947e-14 
   64       2.569181634125e-10       2.651083765248e-14      -3.592415616935e-13       0.000000000000e+00       2.588887377471e-11       1.828477233452e-12      -1.030054842262e-14 
   65       2.605423350550e-10       2.780196311492e-14      -4.046697942968e-13       0.000000000000e+00       2.495137821877e-11       1.774515498401e-12      -1.030737302100e-14 
   66       2.641980171540e-10       2.912574224722e-14      -4.517764449734e-13       0.000000000000e+00       2.405925548560e-11       1.723083553378e-12      -1.026008301781e-14 
   67       2.678837553538e-10       3.048134774142e-14      -5.004991898212e-13       0.000000000000e+00       2.320734880709e-11       1.673906293783e-12      -1.017915676629e-14 
   68       2.715980470299e-10       3.186796207314e-14      -5.507817638357e-13       0.000000000000e+00       2.239047341146e-11       1.626706366991e-12      -1.008354460018e-14 
   69       2.753420321631e-10       3.328515010973e-14      -6.026200957033e-13       0.000000000000e+00       2.160800453713e-11       1.581462791613e-12      -9.976706739801e-15 
   70       2.791172589665e-10       3.473255686139e-14      -6.560251248163e-13       0.000000000000e+00       2.086010128130e-11       1.538197953000e-12      -9.857926713765e-15 
   71       2.829248561074e-10       3.620979796363e-14      -7.110094128924e-13       0.000000000000e+00       2.014631915834e-11       1.496899289099e-12      -9.726406382599e-15 
   72       2.867655035880e-10       3.771645959216e-14      -7.675872660889e-13       0.000000000000e+00       1.946557895972e-11       1.457517453025e-12      -9.581262380417e-15 
   73       2.906394036263e-10       3.925209837767e-14      -8.257748571187e-13       0.000000000000e+00       1.881613561385e-11       1.419964475645e-12      -9.421522556580e-15 
   74       2.945462515372e-10       4.081624132066e-14      -8.855903473645e-13       0.000000000000e+00       1.819554704595e-11       1.384111928144e-12      -9.246122417364e-15 
   75       2.984852066128e-10       4.240838570624e-14      -9.470540089942e-13       0.000000000000e+00       1.760064303788e-11       1.349789084612e-12      -9.053901567618e-15 
   76       3.024553660160e-10       4.402794347467e-14      -1.010177659404e-12       0.000000000000e+00       1.702830825952e-11       1.316824538214e-12      -8.844608569139e-15 
   77       3.064573505965e-10       4.567406280971e-14      -1.074930470281e-12       0.000000000000e+00       1.647806504741e-11       1.285183872702e-12      -8.622134930697e-15 
   78       3.104919566954e-10       4.734577371012e-14      -1.141267116548e-12       0.000000000000e+00       1.594990722106e-11       1.254853874383e-12      -8.391867126813e-15 
   79       3.145596602876e-10       4.904203944337e-14      -1.209137815443e-12       0.000000000000e+00       1.544351348303e-11       1.225800374618e-12      -8.159747341765e-15 
   80       3.186605981770e-10       5.076175532148e-14      -1.278488229471e-12       0.000000000000e+00       1.495823297396e-11       1.197967303454e-12      -7.932290589647e-15 
   81       3.227945491921e-10       5.250374747686e-14      -1.349259369365e-12       0.000000000000e+00       1.449307082777e-11       1.171275743252e-12      -7.716601834441e-15 
   82       3.269609153814e-10       5.426677163816e-14      -1.421387497034e-12       0.000000000000e+00       1.404667372670e-11       1.145622982311e-12      -7.520393110080e-15 
   83       3.311587032093e-10       5.604951190609e-14      -1.494804028526e-12       0.000000000000e+00       1.361731545645e-11       1.120881568496e-12      -7.352000640510e-15 
   84       3.353869488193e-10       5.785064119634e-14      -1.569443197060e-12       0.000000000000e+00       1.320331385988e-11       1.096930492961e-12      -7.218330945991e-15 
   85       3.396461160198e-10       5.966901676270e-14      -1.645266714336e-12       0.000000000000e+00       1.280439275910e-11       1.073756754056e-12      -7.118270443034e-15 
   86       3.439368966554e-10       6.150351499383e-14      -1.722243038631e-12       0.000000000000e+00       1.242052037692e-11       1.051368973721e-12      -7.048209604726e-15 
   87       3.482597759704e-10       6.335297244309e-14      -1.800340011101e-12       0.000000000000e+00       1.205149092414e-11       1.029766364028e-12      -7.003999408255e-15 
   88       3.526150212676e-10       6.521618564087e-14      -1.879524889163e-12       0.000000000000e+00       1.169691740496e-11       1.008938320808e-12      -6.980933648021e-15 
   89       3.570026705675e-10       6.709191090678e-14      -1.959764379865e-12       0.000000000000e+00       1.135622442256e-11       9.888640172831e-13      -6.973731248750e-15 
   90       3.614225212669e-10       6.897886416196e-14      -2.041024673269e-12       0.000000000000e+00       1.102864098454e-11       9.695119976927e-13      -6.976518578598e-15 
   91       3.658741187976e-10       7.087572074133e-14      -2.123271475826e-12       0.000000000000e+00       1.071319330849e-11       9.508397709253e-13      -6.982811762272e-15 
   92       3.703567452856e-10       7.278111520581e-14      -2.206470043753e-12       0.000000000000e+00       1.040869762745e-11       9.327934041459e-13      -6.985498994131e-15 
   93       3.748696958154e-10       7.469365235411e-14      -2.290582737846e-12       0.000000000000e+00       1.011403918404e-11       9.153199812016e-13      -6.978302881297e-15 
   94       3.794131793861e-10       7.661194256014e-14      -2.375561194747e-12       0.000000000000e+00       9.829072838547e-12       8.984080038733e-13      -6.960457475546e-15 
   95       3.839875331210e-10       7.853457142792e-14      -2.461353034466e-12       0.000000000000e+00       9.553845240697e-12       8.820523439091e-13      -6.932705239139e-15 
   96       3.885929394416e-10       8.046008903215e-14      -2.547904233399e-12       0.000000000000e+00       9.288317487820e-12       8.662416929652e-13      -6.895882285464e-15 
   97       3.932294186743e-10       8.238700988421e-14      -2.635159123679e-12       0.000000000000e+00       9.032361858804e-12       8.509583328266e-13      -6.850921008279e-15 
   98       3.978968216572e-10       8.431381289808e-14      -2.723060392533e-12       0.000000000000e+00       8.785758548068e-12       8.361779056298e-13      -6.798852710951e-15 
   99       4.025948223470e-10       8.623894135643e-14      -2.811549081634e-12       0.000000000000e+00       8.548192399533e-12       8.218691840840e-13      -6.740810235694e-15 
  100       4.073229104256e-10       8.816080287655e-14      -2.900564586457e-12       0.000000000000e+00       8.319249640595e-12       8.079938416933e-13      -6.678030592814e-15 
  101       4.120803839069e-10       9.007776937636e-14      -2.990044655632e-12       0.000000000000e+00       8.098414616090e-12       7.945062229778e-13      -6.611857589945e-15 
  102       4.168663417436e-10       9.198817704039e-14      -3.079925390299e-12       0.000000000000e+00       7.885066522272e-12       7.813531136965e-13      -6.543744461290e-15 
  103       4.216796764340e-10       9.389032628581e-14      -3.170141243465e-12       0.000000000000e+00       7.678476140774e-12       7.684735110678e-13      -6.475256496861e-15 
  104       4.265193344759e-10       9.578252619956e-14      -3.260626559217e-12       0.000000000000e+00       7.477969974332e-12       7.558135428070e-13      -6.407794375050e-15 
  105       4.313851537219e-10       9.766323475960e-14      -3.351320428583e-12       0.000000000000e+00       7.283454940095e-12       7.433740143777e-13      -6.341715933131e-15 
  106       4.362771258819e-10       9.953093758028e-14      -3.442162491477e-12       0.000000000000e+00       7.094958795876e-12       7.311688862091e-13      -6.277100110122e-15 
  107       4.411951343809e-10       1.013841055819e-13      -3.533091471494e-12       0.000000000000e+00       6.912467658510e-12       7.192106358969e-13      -6.214015214784e-15 
