# Matter power spectrum P(k) at redshift z=0
# for k=9.8401e-06 to 1.77789 h/Mpc,
# number of wavenumbers equal to 562
#    1:k (h/Mpc)              2:P (Mpc/h)^3        
       9.840104939714e-06       3.866040762393e+01 
       2.248388267254e-05       8.499036076002e+01 
       3.516943150906e-05       1.306681548564e+02 
       4.792963186797e-05       1.760011249715e+02 
       6.079787920896e-05       2.210131134135e+02 
       7.380837098463e-05       2.665663969848e+02 
       8.699640232997e-05       3.122434552606e+02 
       1.003986742939e-04       3.582512411041e+02 
       1.140536184467e-04       4.049959302212e+02 
       1.280017417301e-04       4.525106087119e+02 
       1.422859954273e-04       5.004217096803e+02 
       1.569521720971e-04       5.500946486551e+02 
       1.720493341822e-04       6.018145922795e+02 
       1.876302777277e-04       6.532319395080e+02 
       2.037520341381e-04       7.070795304668e+02 
       2.204764120724e-04       7.638124397639e+02 
       2.378705802807e-04       8.204008463360e+02 
       2.560076902589e-04       8.812077626886e+02 
       2.749675348251e-04       9.436646169840e+02 
       2.948372348295e-04       1.008821631556e+03 
       3.157119409106e-04       1.077069094408e+03 
       3.376955301508e-04       1.148782843698e+03 
       3.609012683431e-04       1.223780609906e+03 
       3.854523970922e-04       1.303201748249e+03 
       4.114825910440e-04       1.386904474594e+03 
       4.391362144100e-04       1.475748471543e+03 
       4.685682884432e-04       1.569354040907e+03 
       4.999440642824e-04       1.669254964551e+03 
       5.334380814302e-04       1.774843059376e+03 
       5.692325853002e-04       1.887248934526e+03 
       6.075151833771e-04       2.006755731568e+03 
       6.484756451845e-04       2.133814839178e+03 
       6.923018027900e-04       2.269090023071e+03 
       7.391745899940e-04       2.412746989867e+03 
       7.892623684051e-04       2.565142103427e+03 
       8.427148178177e-04       2.726617046766e+03 
       8.996567972376e-04       2.897595066374e+03 
       9.601826834371e-04       3.077343201162e+03 
       1.024351734914e-03       3.266409039291e+03 
       1.092184985952e-03       3.464177882428e+03 
       1.163664040707e-03       3.670196974541e+03 
       1.238731927421e-03       3.884860436118e+03 
       1.317295927275e-03       4.106152049575e+03 
       1.399232062039e-03       4.335281964945e+03 
       1.484390756654e-03       4.571655305251e+03 
       1.572603115185e-03       4.813706126000e+03 
       1.663687264197e-03       5.055364863669e+03 
       1.757454306981e-03       5.304588554952e+03 
       1.853713563522e-03       5.555198208370e+03 
       1.952276912024e-03       5.810415618869e+03 
       2.052962173210e-03       6.066149670105e+03 
       2.155595574289e-03       6.324398902056e+03 
       2.260013391768e-03       9.825138299396e+03 
       2.366062904210e-03       1.020621710335e+04 
       2.473602794721e-03       7.440413500259e+03 
       2.582503135883e-03       9.990803100927e+03 
       2.692645073907e-03       7.960843835418e+03 
       2.803920309124e-03       9.596704307159e+03 
       2.916230449901e-03       8.759717642618e+03 
       3.029486298792e-03       8.737779410909e+03 
       3.143607114065e-03       8.985720759180e+03 
       3.258519877014e-03       9.058468204758e+03 
       3.374158585455e-03       9.067756112526e+03 
       3.490463586230e-03       1.417323412104e+04 
       3.607380954002e-03       1.389315318980e+04 
       3.724861919585e-03       1.366788173126e+04 
       3.842862348356e-03       1.347989182545e+04 
       3.961342267447e-03       1.332925090798e+04 
       4.080265439252e-03       1.321415391294e+04 
       4.199598978155e-03       1.313181693927e+04 
       4.319313007049e-03       1.307898880833e+04 
       4.439380350113e-03       1.305231982953e+04 
       4.559776258413e-03       1.304855863512e+04 
       4.680478165026e-03       1.306467011095e+04 
       4.801465466613e-03       1.309788201793e+04 
       4.922719328618e-03       1.314571814318e+04 
       5.044222511507e-03       1.320599587065e+04 
       5.165959215719e-03       1.327679293082e+04 
       5.287914943253e-03       1.863682158381e+04 
       5.410076374000e-03       1.835014509986e+04 
       5.532431255182e-03       1.808874413175e+04 
       5.654968302407e-03       1.785192316349e+04 
       5.777677111038e-03       1.764014063152e+04 
       5.900548076714e-03       1.745314221429e+04 
       6.023572324009e-03       1.728974740320e+04 
       6.146741642315e-03       1.714858020037e+04 
       6.270048428153e-03       1.702785991043e+04 
       6.393485633218e-03       1.692631178626e+04 
       6.517046717510e-03       1.684194431684e+04 
       6.640725607028e-03       1.677311534722e+04 
       6.764516655519e-03       1.671958121864e+04 
       6.888414609863e-03       1.667844777904e+04 
       7.012414578705e-03       1.664835394627e+04 
       7.136512004003e-03       1.662965581764e+04 
       7.260702635177e-03       1.661925425402e+04 
       7.384982505619e-03       1.661730619367e+04 
       7.509347911294e-03       1.662258988863e+04 
       7.633795391251e-03       1.663418655910e+04 
       7.758321709838e-03       1.665140258998e+04 
       7.882923840457e-03       1.667284004844e+04 
       8.007598950720e-03       1.669897921735e+04 
       8.132344388853e-03       1.672846182232e+04 
       8.257157671251e-03       1.676174695616e+04 
       8.382036471063e-03       1.679688625155e+04 
       8.506978607705e-03       1.683443579212e+04 
       8.631982037243e-03       1.687381883676e+04 
       8.757044843532e-03       1.691484972959e+04 
       8.882165230071e-03       1.695667643030e+04 
       9.007341512495e-03       1.699998900649e+04 
       9.132572111656e-03       1.704357223322e+04 
       9.257855547239e-03       1.708745103075e+04 
       9.383190431862e-03       1.713185769697e+04 
       9.508575465631e-03       1.717639824624e+04 
       9.634009431098e-03       1.722072225448e+04 
       9.759491188601e-03       1.726465099686e+04 
       9.885019671946e-03       1.730831833375e+04 
       1.001059388441e-02       1.735140853759e+04 
       1.013621289501e-02       1.739382719829e+04 
       1.026187583511e-02       1.743554180799e+04 
       1.038758189517e-02       1.747668409209e+04 
       1.051333032183e-02       1.751706106531e+04 
       1.063912041512e-02       1.755595585178e+04 
       1.076495152593e-02       1.759402884264e+04 
       1.089082305360e-02       1.763159467613e+04 
       1.101673444374e-02       1.766707996500e+04 
       1.114268518614e-02       1.770262485804e+04 
       1.126867481288e-02       1.773607892853e+04 
       1.139470289654e-02       1.776906472404e+04 
       1.152076904853e-02       1.780038202258e+04 
       1.164687291757e-02       1.783013170574e+04 
       1.177301418824e-02       1.785877590606e+04 
       1.189919257962e-02       1.788632864992e+04 
       1.202540784412e-02       1.791262559001e+04 
       1.215165976624e-02       1.793773494238e+04 
       1.227794816154e-02       1.796128307713e+04 
       1.240427287566e-02       1.798342199312e+04 
       1.253063378333e-02       1.800430068992e+04 
       1.265703078759e-02       1.802395317140e+04 
       1.278346381891e-02       1.804207654057e+04 
       1.290993283452e-02       1.805895639804e+04 
       1.303643781770e-02       1.807447151245e+04 
       1.316297877713e-02       1.808869291584e+04 
       1.328955574636e-02       1.810136963979e+04 
       1.341616878322e-02       1.811304956124e+04 
       1.354281796936e-02       1.812330628125e+04 
       1.366950340980e-02       1.813203849069e+04 
       1.379622523251e-02       1.813994549087e+04 
       1.392298358806e-02       1.814578289647e+04 
       1.404977864924e-02       1.815095735060e+04 
       1.417661061080e-02       1.815442551443e+04 
       1.430347968916e-02       1.815698857999e+04 
       1.443038612218e-02       1.815814072429e+04 
       1.455733016893e-02       1.815800250169e+04 
       1.468431210954e-02       1.815672172631e+04 
       1.481133224501e-02       1.815410615496e+04 
       1.493839089710e-02       1.815030448347e+04 
       1.506548840822e-02       1.814525865623e+04 
       1.519262514134e-02       1.813920294668e+04 
       1.531980147997e-02       1.813169346127e+04 
       1.544701782807e-02       1.812315492340e+04 
       1.557427461008e-02       1.811360618186e+04 
       1.570157227089e-02       1.810270710085e+04 
       1.582891127591e-02       1.808998608456e+04 
       1.595629211108e-02       1.807756501119e+04 
       1.608371528296e-02       1.806338231416e+04 
       1.621118131879e-02       1.804815713549e+04 
       1.633869076664e-02       1.803184212841e+04 
       1.646624419547e-02       1.801430335273e+04 
       1.659384219532e-02       1.799586340862e+04 
       1.672148537745e-02       1.797653147773e+04 
       1.684917437452e-02       1.795595711387e+04 
       1.697690984076e-02       1.793456695231e+04 
       1.710469245221e-02       1.791200833253e+04 
       1.723252290692e-02       1.788858931280e+04 
       1.736040192521e-02       1.786415164218e+04 
       1.748833024991e-02       1.783910997676e+04 
       1.761630864667e-02       1.781257129673e+04 
       1.774433790421e-02       1.778522312370e+04 
       1.787241883465e-02       1.775724002931e+04 
       1.800055227384e-02       1.772828164240e+04 
       1.812873908167e-02       1.769830309700e+04 
       1.825698014247e-02       1.766772745853e+04 
       1.838527636538e-02       1.763609875194e+04 
       1.851362868469e-02       1.760381227340e+04 
       1.864203806031e-02       1.757059687928e+04 
       1.877050547817e-02       1.753649608374e+04 
       1.889903195067e-02       1.750182308357e+04 
       1.902761851712e-02       1.746618110667e+04 
       1.915626624425e-02       1.742993141360e+04 
       1.928497622669e-02       1.739288323384e+04 
       1.941374958749e-02       1.735506313835e+04 
       1.954258747864e-02       1.731652491785e+04 
       1.967149108165e-02       1.727731296884e+04 
       1.980046160810e-02       1.723743155188e+04 
       1.992950030026e-02       1.719674275230e+04 
       2.005860843165e-02       1.715536045599e+04 
       2.018778730775e-02       1.711357043251e+04 
       2.031703826659e-02       1.707139618686e+04 
       2.044636267944e-02       1.702779236707e+04 
       2.057576195154e-02       1.698397923886e+04 
       2.070523752281e-02       1.693966697328e+04 
       2.083479086855e-02       1.689462021360e+04 
       2.096442350028e-02       1.684907952297e+04 
       2.109413696648e-02       1.680283345988e+04 
       2.122393285343e-02       1.675616097274e+04 
       2.135381278607e-02       1.670890972661e+04 
       2.148377842883e-02       1.666128947091e+04 
       2.161383148656e-02       1.661295121588e+04 
       2.174397370547e-02       1.656413888860e+04 
       2.187420687403e-02       1.651490769315e+04 
       2.200453282403e-02       1.646518204363e+04 
       2.213495343153e-02       1.641491507734e+04 
       2.226547061796e-02       1.636435514790e+04 
       2.239608635119e-02       1.631315183132e+04 
       2.252680264660e-02       1.626168216646e+04 
       2.265762156830e-02       1.620966465158e+04 
       2.278854523029e-02       1.615736461199e+04 
       2.291957579766e-02       1.610451938859e+04 
       2.305071548789e-02       1.605134109894e+04 
       2.318196657212e-02       1.599784500093e+04 
       2.331333137654e-02       1.594391373649e+04 
       2.344481228372e-02       1.588966324170e+04 
       2.357641173409e-02       1.583503644961e+04 
       2.370813222740e-02       1.578012359241e+04 
       2.383997632424e-02       1.572479241855e+04 
       2.397194664762e-02       1.566921191152e+04 
       2.410404588459e-02       1.561332497979e+04 
       2.423627678793e-02       1.555714025166e+04 
       2.436864217787e-02       1.550071840689e+04 
       2.450114494390e-02       1.544395730233e+04 
       2.463378804660e-02       1.538691421516e+04 
       2.476657451953e-02       1.532962097842e+04 
       2.489950747127e-02       1.527212341637e+04 
       2.503259008739e-02       1.521435100867e+04 
       2.516582563261e-02       1.515639669889e+04 
       2.529921745296e-02       1.509817355586e+04 
       2.543276897801e-02       1.503976085779e+04 
       2.556648372325e-02       1.498109936182e+04 
       2.570036529247e-02       1.492230154809e+04 
       2.583441738026e-02       1.486330840063e+04 
       2.596864377461e-02       1.480409269527e+04 
       2.610304835956e-02       1.474480610485e+04 
       2.623763511799e-02       1.468529867436e+04 
       2.637240813444e-02       1.462564199648e+04 
       2.650737159816e-02       1.456584166174e+04 
       2.664252980612e-02       1.450585303063e+04 
       2.677788716619e-02       1.444583091902e+04 
       2.691344820052e-02       1.438566759724e+04 
       2.704921754887e-02       1.432493334985e+04 
       2.718519997223e-02       1.426497800788e+04 
       2.732140035647e-02       1.420446215935e+04 
       2.745782371618e-02       1.414384996534e+04 
       2.759447519862e-02       1.408322252138e+04 
       2.773136008785e-02       1.402242963450e+04 
       2.786848380900e-02       1.396159501629e+04 
       2.800585193274e-02       1.390074982340e+04 
       2.814347017982e-02       1.383982222404e+04 
       2.828134442597e-02       1.377880272648e+04 
       2.841948070678e-02       1.371776485030e+04 
       2.855788522297e-02       1.365669921496e+04 
       2.869656434574e-02       1.359559577280e+04 
       2.883552462236e-02       1.353443940361e+04 
       2.897477278209e-02       1.347328038190e+04 
       2.911431574216e-02       1.341214366728e+04 
       2.925416061417e-02       1.335092763779e+04 
       2.939431471070e-02       1.328976843824e+04 
       2.953478555211e-02       1.322860675824e+04 
       2.967558087378e-02       1.316743163643e+04 
       2.981670863359e-02       1.310625670314e+04 
       2.995817701966e-02       1.304515005360e+04 
       3.009999445855e-02       1.298397530139e+04 
       3.024216962375e-02       1.292297773303e+04 
       3.038471144453e-02       1.286188407108e+04 
       3.052762911526e-02       1.280083667519e+04 
       3.067093210509e-02       1.273987142461e+04 
       3.081463016807e-02       1.267898636280e+04 
       3.095873335380e-02       1.261810443136e+04 
       3.110325201851e-02       1.255723757301e+04 
       3.124819683666e-02       1.249647541507e+04 
       3.139357881317e-02       1.243577412443e+04 
       3.153940929613e-02       1.237512526325e+04 
       3.168569999022e-02       1.231461680496e+04 
       3.183246297067e-02       1.225411540235e+04 
       3.197971069805e-02       1.219369019178e+04 
       3.212745603367e-02       1.213333809519e+04 
       3.227571225585e-02       1.207309420511e+04 
       3.242449307692e-02       1.201292361514e+04 
       3.257381266119e-02       1.195286592808e+04 
       3.272368564378e-02       1.189292921892e+04 
       3.287412715047e-02       1.183302385933e+04 
       3.302515281859e-02       1.177321863502e+04 
       3.317677881902e-02       1.171356956051e+04 
       3.332902187940e-02       1.165395766511e+04 
       3.348189930857e-02       1.159451830196e+04 
       3.363542902240e-02       1.153517798215e+04 
       3.378962957105e-02       1.147589263271e+04 
       3.394452016773e-02       1.141673358699e+04 
       3.410012071915e-02       1.135769406194e+04 
       3.425645185772e-02       1.129882218412e+04 
       3.441353497559e-02       1.124003787367e+04 
       3.457139226076e-02       1.118135985088e+04 
       3.473004673528e-02       1.112280581861e+04 
       3.488952229581e-02       1.106437363630e+04 
       3.504984375662e-02       1.100609981865e+04 
       3.521103689532e-02       1.582415266347e+04 
       3.537312850135e-02       1.088984725194e+04 
       3.553614642761e-02       1.083194424755e+04 
       3.570011964544e-02       1.077410717858e+04 
       3.586507830308e-02       1.071643148689e+04 
       3.603105378804e-02       1.065891168666e+04 
       3.619807879362e-02       1.060149187679e+04 
       3.636618738991e-02       1.054422208831e+04 
       3.653541509969e-02       1.048706023644e+04 
       3.670579897952e-02       1.043001996679e+04 
       3.687737770660e-02       1.037312538192e+04 
       3.705019167179e-02       1.031637958656e+04 
       3.722428307936e-02       1.025974987334e+04 
       3.739969605403e-02       1.020322480022e+04 
       3.757647675599e-02       1.014680621572e+04 
       3.775467350455e-02       1.009056400998e+04 
       3.793433691134e-02       1.003443653916e+04 
       3.811552002373e-02       9.978443226316e+03 
       3.829827847959e-02       9.922555848526e+03 
       3.848267067452e-02       9.866799335756e+03 
       3.866875794251e-02       9.811157608898e+03 
       3.885660475163e-02       9.755639039899e+03 
       3.904627891603e-02       1.346498856543e+04 
       3.923785182606e-02       1.132602528970e+04 
       3.943139869829e-02       9.589722450065e+03 
       3.962699884748e-02       9.534679339601e+03 
       3.982473598295e-02       9.479692835692e+03 
       4.002469853190e-02       1.129609853099e+04 
       4.022697999264e-02       1.368283294281e+04 
       4.043167932114e-02       9.315396068674e+03 
       4.063890135460e-02       1.149629038217e+04 
       4.084875727648e-02       9.206363588078e+03 
       4.106136512768e-02       1.160926986583e+04 
       4.127685036960e-02       1.065621781146e+04 
       4.149534650536e-02       9.043403542807e+03 
       4.171699576636e-02       8.989224184641e+03 
       4.194194987269e-02       1.169546297076e+04 
       4.217037087675e-02       1.081192402777e+04 
       4.240243210123e-02       8.827164650598e+03 
       4.263831918420e-02       9.654086646337e+03 
       4.287823124595e-02       8.719334062578e+03 
       4.312238219487e-02       1.182614972278e+04 
       4.337100219227e-02       1.255452332639e+04 
       4.362433929953e-02       9.805071886847e+03 
       4.388266133493e-02       9.468008388992e+03 
       4.414625797244e-02       8.450313750715e+03 
       4.441544312037e-02       8.396544738173e+03 
       4.469055762509e-02       8.342736610368e+03 
       4.497197235308e-02       9.390858703499e+03 
       4.526009171529e-02       8.235044599942e+03 
       4.555535771016e-02       8.181096538592e+03 
       4.585825457711e-02       1.080529410281e+04 
       4.616931417134e-02       9.944237021206e+03 
       4.648912219411e-02       8.018865459849e+03 
       4.681832544205e-02       7.964549732555e+03 
       4.715764027494e-02       9.556673884080e+03 
       4.750786254703e-02       9.614655664675e+03 
       4.786987930394e-02       7.800743913681e+03 
       4.824468261891e-02       7.745759041416e+03 
       4.863338603323e-02       9.320161036461e+03 
       4.903724418111e-02       7.634967499605e+03 
       4.945767632623e-02       7.579139160545e+03 
       4.989629472438e-02       7.522914688655e+03 
       5.035493896548e-02       9.162436125047e+03 
       5.083571775172e-02       7.409120297842e+03 
       5.134105995300e-02       7.351416761389e+03 
       5.187377726175e-02       7.293055493355e+03 
       5.243714136064e-02       7.233870901761e+03 
       5.303497921985e-02       7.938815016315e+03 
       5.367179092615e-02       7.112581033492e+03 
       5.435289521586e-02       7.847654480054e+03 
       5.508460839298e-02       6.985817672499e+03 
       5.587446202197e-02       6.919568707746e+03 
       5.673146258306e-02       6.850689717287e+03 
       5.766638999753e-02       6.778490679055e+03 
       5.869211757371e-02       7.325529833388e+03 
       5.982390666625e-02       6.619640714272e+03 
