# dimensionless total [l(l+1)/2pi] C_l's
# for l=2 to 2500, i.e. number of multipoles equal to 2499
#
# -> if you prefer output in CAMB/HealPix/LensPix units/order, set 'format' to 'camb' in input file
# -> if you don't want to see such a header, set 'headers' to 'no' in input file
# -> for CMB lensing (phi), these are C_l^phi-phi for the lensing potential.
#    Remember the conversion factors:
#    C_l^dd (deflection) = l(l+1) C_l^phi-phi
#    C_l^gg (shear/convergence) = 1/4 (l(l+1))^2 C_l^phi-phi
#
# 1:l     2:TT                     3:EE                     4:TE                     5:BB                     6:phiphi                 7:TPhi                   8:Ephi               
    2       1.428042802617e-10       5.693081811034e-15       4.906225006391e-13       0.000000000000e+00       8.286642853832e-09       3.736076237386e-10      -2.243758368310e-12 
    3       1.391866343501e-10       7.585272741141e-15       5.403172203957e-13       0.000000000000e+00       5.144034854689e-09       2.934955689672e-10      -1.709314007936e-12 
    4       1.345762036956e-10       6.866510370523e-15       4.998090930259e-13       0.000000000000e+00       3.593191240373e-09       2.346213732110e-10      -1.141994243391e-12 
    5       1.282566591454e-10       4.800450495587e-15       4.189242835897e-13       0.000000000000e+00       2.680227240150e-09       1.870019011860e-10      -6.694210942676e-13 
    6       1.222236840179e-10       2.763858872236e-15       3.287797323638e-13       0.000000000000e+00       2.083453683574e-09       1.484303868141e-10      -3.156875810222e-13 
    7       1.184784418443e-10       1.447052138466e-15       2.489393792337e-13       0.000000000000e+00       1.668195644214e-09       1.185252750165e-10      -7.806786291690e-14 
    8       1.162487481166e-10       8.412205203583e-16       1.872845727990e-13       0.000000000000e+00       1.367434596917e-09       9.574690916781e-11       5.750282421300e-14 
    9       1.147877774740e-10       6.310949441443e-16       1.451387478878e-13       0.000000000000e+00       1.143137503439e-09       7.850043774386e-11       1.118236886055e-13 
   10       1.141286425251e-10       5.410301125031e-16       1.205026346858e-13       0.000000000000e+00       9.717799695778e-10       6.572495792504e-11       1.094038777766e-13 
   11       1.143581975350e-10       4.587417692656e-16       1.096121863840e-13       0.000000000000e+00       8.192481902146e-10       5.678933003145e-11       7.511964926308e-14 
   12       1.152064125751e-10       3.858705225401e-16       1.082400718046e-13       0.000000000000e+00       7.147224573040e-10       4.959733144455e-11       2.990566946796e-14 
   13       1.161648061211e-10       3.462446550317e-16       1.125282574587e-13       0.000000000000e+00       6.295264709472e-10       4.366224007730e-11      -1.101629808552e-14 
   14       1.172733131165e-10       3.394474528169e-16       1.194281984732e-13       0.000000000000e+00       5.589400149534e-10       3.883504895973e-11      -3.869840481261e-14 
   15       1.186650196019e-10       3.472474098683e-16       1.269741077911e-13       0.000000000000e+00       4.996718132343e-10       3.488168639278e-11      -5.092654792492e-14 
   16       1.204834561475e-10       3.569406269148e-16       1.341327375013e-13       0.000000000000e+00       4.493475963590e-10       3.186008451269e-11      -4.959054072911e-14 
   17       1.224029499627e-10       3.712379873440e-16       1.406853776326e-13       0.000000000000e+00       4.062111310648e-10       2.924464032993e-11      -3.932352801765e-14 
   18       1.239531522984e-10       4.017375664200e-16       1.470930884499e-13       0.000000000000e+00       3.687862346421e-10       2.671303338644e-11      -2.566953660341e-14 
   19       1.255316021468e-10       4.539950552490e-16       1.538144215444e-13       0.000000000000e+00       3.364643910337e-10       2.444465436778e-11      -1.270204105933e-14 
   20       1.277090870492e-10       5.299682519075e-16       1.612783606966e-13       0.000000000000e+00       3.079925502728e-10       2.265475963964e-11      -4.193694797130e-15 
   21       1.300948112376e-10       6.272828983789e-16       1.697085872622e-13       0.000000000000e+00       2.829342312742e-10       2.107877094030e-11      -9.440330782266e-16 
   22       1.320162347791e-10       7.415603576882e-16       1.791600393399e-13       0.000000000000e+00       2.606741153742e-10       1.931995750053e-11      -2.312523655662e-15 
   23       1.337836868528e-10       8.721403297604e-16       1.893065239546e-13       0.000000000000e+00       2.407270982728e-10       1.761180528273e-11      -6.748151101472e-15 
   24       1.359532651571e-10       1.019117602310e-15       1.995986245357e-13       0.000000000000e+00       2.224789698479e-10       1.633665323736e-11      -1.208235482878e-14 
   25       1.383647945430e-10       1.181499897792e-15       2.095082659018e-13       0.000000000000e+00       2.060706853620e-10       1.535785426103e-11      -1.665808068039e-14 
   26       1.406458446143e-10       1.358059528727e-15       2.185075882595e-13       0.000000000000e+00       1.916649101943e-10       1.438226829962e-11      -1.902853219982e-14 
   27       1.428536320624e-10       1.549663940605e-15       2.263984795940e-13       0.000000000000e+00       1.789081452158e-10       1.342694407023e-11      -1.901125600980e-14 
   28       1.451589577581e-10       1.758039956465e-15       2.331133433826e-13       0.000000000000e+00       1.672139525003e-10       1.259147816717e-11      -1.697731173373e-14 
   29       1.475793285436e-10       1.985277718600e-15       2.386911130723e-13       0.000000000000e+00       1.564885878430e-10       1.187471163933e-11      -1.366790572685e-14 
   30       1.500639275725e-10       2.233856844292e-15       2.432436056894e-13       0.000000000000e+00       1.466988109582e-10       1.123064378416e-11      -1.015223637395e-14 
   31       1.525498043800e-10       2.506239199876e-15       2.469147192574e-13       0.000000000000e+00       1.377307873525e-10       1.060808286030e-11      -7.555738852856e-15 
   32       1.550394271159e-10       2.803364790098e-15       2.497804758565e-13       0.000000000000e+00       1.295408376575e-10       1.001075427489e-11      -6.137361462127e-15 
   33       1.575495205396e-10       3.125576412367e-15       2.519155158365e-13       0.000000000000e+00       1.220444592372e-10       9.458858720863e-12      -5.868608667780e-15 
   34       1.600905321980e-10       3.473105466425e-15       2.533694986120e-13       0.000000000000e+00       1.151098067208e-10       8.968182090501e-12      -6.612592953190e-15 
   35       1.626684881316e-10       3.846478925085e-15       2.539898206748e-13       0.000000000000e+00       1.087009077004e-10       8.531774696233e-12      -7.936515917840e-15 
   36       1.652821302979e-10       4.246236187890e-15       2.535332391513e-13       0.000000000000e+00       1.027750079802e-10       8.131060516291e-12      -9.218046749934e-15 
   37       1.679252156278e-10       4.672906760958e-15       2.517554840884e-13       0.000000000000e+00       9.726379528504e-11       7.746155923099e-12      -9.846876695282e-15 
   38       1.705993631287e-10       5.127328784937e-15       2.485702378325e-13       0.000000000000e+00       9.215405189235e-11       7.376785839204e-12      -9.782814386444e-15 
   39       1.733041876795e-10       5.610430999109e-15       2.439412855994e-13       0.000000000000e+00       8.742814418265e-11       7.027835078464e-12      -9.179681883888e-15 
   40       1.760330505412e-10       6.123147390983e-15       2.378406494484e-13       0.000000000000e+00       8.303917275535e-11       6.703644960621e-12      -8.240226438129e-15 
   41       1.787773101027e-10       6.666351282249e-15       2.302558915891e-13       0.000000000000e+00       7.892714398615e-11       6.407114221196e-12      -7.189662780645e-15 
   42       1.815422597031e-10       7.240631989807e-15       2.212135552491e-13       0.000000000000e+00       7.507993391787e-11       6.136845499816e-12      -6.177795936728e-15 
   43       1.843353129080e-10       7.846445313621e-15       2.107642847147e-13       0.000000000000e+00       7.148788668297e-11       5.888932867479e-12      -5.350739271240e-15 
   44       1.871612759922e-10       8.484168559892e-15       1.989777314135e-13       0.000000000000e+00       6.812557562394e-11       5.657564165241e-12      -4.879322763401e-15 
   45       1.900223825845e-10       9.154168263150e-15       1.859152059573e-13       0.000000000000e+00       6.496097580716e-11       5.436619809903e-12      -4.905409097890e-15 
   46       1.929191119079e-10       9.857038366565e-15       1.715355023222e-13       0.000000000000e+00       6.198921606936e-11       5.225363694055e-12      -5.358598663794e-15 
   47       1.958491084559e-10       1.059342540115e-14       1.557626384269e-13       0.000000000000e+00       5.920677761892e-11       5.024219401399e-12      -6.086967663193e-15 
   48       1.988065992119e-10       1.136396189684e-14       1.385111645817e-13       0.000000000000e+00       5.660129932968e-11       4.833144683790e-12      -6.905510087417e-15 
   49       2.017821149191e-10       1.216926593529e-14       1.196855411930e-13       0.000000000000e+00       5.415092045814e-11       4.651593764877e-12      -7.594287612417e-15 
   50       2.047663198155e-10       1.300987283805e-14       9.919579073792e-14       0.000000000000e+00       5.183084905996e-11       4.478802622762e-12      -7.957121381109e-15 
   51       2.077633730015e-10       1.388600940892e-14       7.701090604552e-14       0.000000000000e+00       4.963669402923e-11       4.314823583974e-12      -8.020740963467e-15 
   52       2.107807120641e-10       1.479775763919e-14       5.311886341349e-14       0.000000000000e+00       4.756633012382e-11       4.159706397864e-12      -7.886494111200e-15 
   53       2.138251782350e-10       1.574511366194e-14       2.751175553924e-14       0.000000000000e+00       4.561291607026e-11       4.013177838620e-12      -7.675504695598e-15 
   54       2.169029310003e-10       1.672798411116e-14       1.859350721993e-16       0.000000000000e+00       4.376457731378e-11       3.874619207915e-12      -7.529671632887e-15 
   55       2.200187620664e-10       1.774627402991e-14      -2.886266491128e-14       0.000000000000e+00       4.200797835644e-11       3.743236377715e-12      -7.576743382826e-15 
   56       2.231740332989e-10       1.880018450879e-14      -5.965425966501e-14       0.000000000000e+00       4.034080578800e-11       3.618670925040e-12      -7.813092851463e-15 
   57       2.263680769573e-10       1.988998261001e-14      -9.221313993371e-14       0.000000000000e+00       3.876183061963e-11       3.500501410333e-12      -8.193570953835e-15 
   58       2.295986450354e-10       2.101591622422e-14      -1.265632346092e-13       0.000000000000e+00       3.726712829036e-11       3.388049469365e-12      -8.664487610150e-15 
   59       2.328618004704e-10       2.217821399649e-14      -1.627281550900e-13       0.000000000000e+00       3.584991295947e-11       3.280364817458e-12      -9.163211018147e-15 
   60       2.361518083516e-10       2.337708525231e-14      -2.007312396415e-13       0.000000000000e+00       3.450037179896e-11       3.176210253702e-12      -9.617766925463e-15 
   61       2.394630989794e-10       2.461262278097e-14      -2.405890849512e-13       0.000000000000e+00       3.320841623760e-11       3.074416551387e-12      -9.962832901340e-15 
   62       2.427969180599e-10       2.588448585355e-14      -2.822903437978e-13       0.000000000000e+00       3.197303221050e-11       2.975074140206e-12      -1.019282293474e-14 
   63       2.461559829593e-10       2.719214559980e-14      -3.258122253507e-13       0.000000000000e+00       3.079474417385e-11       2.878583516954e-12      -1.032006137255e-14 
   64       2.495425003726e-10       2.853497277862e-14      -3.711264289502e-13       0.000000000000e+00       2.967281164623e-11       2.785305767771e-12      -1.035955646539e-14 
   65       2.529581232707e-10       2.991223462182e-14      -4.181989818217e-13       0.000000000000e+00       2.860515605376e-11       2.695559308560e-12      -1.032911984093e-14 
   66       2.564039078472e-10       3.132309167781e-14      -4.669900767888e-13       0.000000000000e+00       2.758828757515e-11       2.609616625427e-12      -1.024948597716e-14 
   67       2.598802704657e-10       3.276659465538e-14      -5.174539099867e-13       0.000000000000e+00       2.661723198687e-11       2.527701015097e-12      -1.014443167567e-14 
   68       2.633873849681e-10       3.424180414167e-14      -5.695482360130e-13       0.000000000000e+00       2.568689153365e-11       2.449955388979e-12      -1.003585288010e-14 
   69       2.669265643218e-10       3.574818498020e-14      -6.232656444066e-13       0.000000000000e+00       2.479661126786e-11       2.376348631196e-12      -9.927569677637e-15 
   70       2.704990828749e-10       3.728528650134e-14      -6.786083581864e-13       0.000000000000e+00       2.394641080332e-11       2.306744323412e-12      -9.818439314054e-15 
   71       2.741057295441e-10       3.885262670510e-14      -7.355791618429e-13       0.000000000000e+00       2.313559633146e-11       2.240923099553e-12      -9.707099175394e-15 
   72       2.777467760243e-10       4.044969224749e-14      -7.941814875796e-13       0.000000000000e+00       2.236272414226e-11       2.178578671756e-12      -9.591957293106e-15 
   73       2.814219449980e-10       4.207593842679e-14      -8.544195015544e-13       0.000000000000e+00       2.162556414522e-11       2.119313856305e-12      -9.471182849178e-15 
   74       2.851303783449e-10       4.373078916984e-14      -9.162981901205e-13       0.000000000000e+00       2.092106339026e-11       2.062636599580e-12      -9.342696681283e-15 
   75       2.888706053510e-10       4.541363701839e-14      -9.798234460681e-13       0.000000000000e+00       2.024530958872e-11       2.007956003996e-12      -9.204161787904e-15 
   76       2.926411964098e-10       4.712377822351e-14      -1.044994222656e-12       0.000000000000e+00       1.959449443688e-11       1.954725522060e-12      -9.053833216663e-15 
   77       2.964429320207e-10       4.886020439497e-14      -1.111777153284e-12       0.000000000000e+00       1.896808702947e-11       1.902911469401e-12      -8.893307641773e-15 
   78       3.002769733982e-10       5.062177265670e-14      -1.180127438777e-12       0.000000000000e+00       1.836617554694e-11       1.852603124230e-12      -8.725260264542e-15 
   79       3.041441946225e-10       5.240726584551e-14      -1.249996293826e-12       0.000000000000e+00       1.778850307168e-11       1.803872197764e-12      -8.552637907257e-15 
   80       3.080451649052e-10       5.421539116667e-14      -1.321330870571e-12       0.000000000000e+00       1.723445161071e-11       1.756771877977e-12      -8.378667140666e-15 
   81       3.119801308550e-10       5.604477884962e-14      -1.394074182192e-12       0.000000000000e+00       1.670302611841e-11       1.711335873342e-12      -8.206862411466e-15 
   82       3.159489987445e-10       5.789398080353e-14      -1.468165026488e-12       0.000000000000e+00       1.619283851925e-11       1.667577456574e-12      -8.041034169786e-15 
   83       3.199513167752e-10       5.976146927304e-14      -1.543537909462e-12       0.000000000000e+00       1.570209173044e-11       1.625488508376e-12      -7.885296996673e-15 
   84       3.239865829135e-10       6.164570790432e-14      -1.620128906055e-12       0.000000000000e+00       1.522902056111e-11       1.585047086827e-12      -7.743266036252e-15 
   85       3.280552658766e-10       6.354538142481e-14      -1.697894526048e-12       0.000000000000e+00       1.477333338817e-11       1.546243671982e-12      -7.615475428585e-15 
   86       3.321579216770e-10       6.545920175176e-14      -1.776795850162e-12       0.000000000000e+00       1.433498129743e-11       1.509057539055e-12      -7.501544819169e-15 
   87       3.362948710202e-10       6.738583884165e-14      -1.856792894014e-12       0.000000000000e+00       1.391371428057e-11       1.473447818619e-12      -7.400947569740e-15 
   88       3.404661870430e-10       6.932392056276e-14      -1.937844631489e-12       0.000000000000e+00       1.350907293644e-11       1.439352683648e-12      -7.313005243829e-15 
   89       3.446716830508e-10       7.127203256785e-14      -2.019909018106e-12       0.000000000000e+00       1.312038017241e-11       1.406688536541e-12      -7.236882092301e-15 
   90       3.489109002557e-10       7.322871816675e-14      -2.102943014388e-12       0.000000000000e+00       1.274673290560e-11       1.375349196160e-12      -7.171579538909e-15 
   91       3.531830955140e-10       7.519247819900e-14      -2.186902609230e-12       0.000000000000e+00       1.238699376427e-11       1.345205084857e-12      -7.115930665836e-15 
   92       3.574872290639e-10       7.716177090648e-14      -2.271742843268e-12       0.000000000000e+00       1.203978278904e-11       1.316102415513e-12      -7.068594699243e-15 
   93       3.618223027072e-10       7.913502625585e-14      -2.357416445434e-12       0.000000000000e+00       1.170380195820e-11       1.287897979935e-12      -7.028213255940e-15 
   94       3.661884591701e-10       8.111069164655e-14      -2.443869457292e-12       0.000000000000e+00       1.137888262064e-11       1.260571264970e-12      -6.993917942173e-15 
   95       3.705860261834e-10       8.308719287379e-14      -2.531044990743e-12       0.000000000000e+00       1.106508098646e-11       1.234127774029e-12      -6.964889257281e-15 
   96       3.750151734203e-10       8.506292036125e-14      -2.618884560480e-12       0.000000000000e+00       1.076235565952e-11       1.208564608252e-12      -6.940198385042e-15 
   97       3.794759050437e-10       8.703622923212e-14      -2.707328088318e-12       0.000000000000e+00       1.047056390740e-11       1.183870142231e-12      -6.918803899680e-15 
   98       3.839680522550e-10       8.900543938000e-14      -2.796313907528e-12       0.000000000000e+00       1.018945793128e-11       1.160023699739e-12      -6.899548471884e-15 
   99       3.884912658422e-10       9.096883553994e-14      -2.885778767166e-12       0.000000000000e+00       9.918681135887e-12       1.136995229460e-12      -6.881155574824e-15 
  100       3.930450087280e-10       9.292466735939e-14      -2.975657836410e-12       0.000000000000e+00       9.657764399440e-12       1.114744980706e-12      -6.862226190166e-15 
  101       3.976285485179e-10       9.487114946918e-14      -3.065884708888e-12       0.000000000000e+00       9.406122343542e-12       1.093223179153e-12      -6.841235514085e-15 
  102       4.022409500489e-10       9.680646155447e-14      -3.156391407011e-12       0.000000000000e+00       9.163049603124e-12       1.072369702564e-12      -6.816529663283e-15 
  103       4.068810679373e-10       9.872874842579e-14      -3.247108386308e-12       0.000000000000e+00       8.927717096364e-12       1.052113756513e-12      -6.786322381005e-15 
  104       4.115478053349e-10       1.006361694314e-13      -3.337965867570e-12       0.000000000000e+00       8.699357499275e-12       1.032390075201e-12      -6.749121459107e-15 
  105       4.162409460551e-10       1.025270541440e-13      -3.428898028903e-12       0.000000000000e+00       8.477858238025e-12       1.013190714762e-12      -6.705080702404e-15 
  106       4.209604214861e-10       1.043997679349e-13      -3.519839390674e-12       0.000000000000e+00       8.263242020222e-12       9.945196845069e-13      -6.654825304271e-15 
  107       4.257060499489e-10       1.062526651171e-13      -3.610723556961e-12       0.000000000000e+00       8.055483152490e-12       9.763769056620e-13      -6.599039850189e-15 
