# Matter power spectrum P(k) at redshift z=0
# for k=9.57411e-06 to 1.64271 h/Mpc,
# number of wavenumbers equal to 560
#    1:k (h/Mpc)              2:P (Mpc/h)^3        
       9.574112915744e-06       3.283426619092e+01 
       2.203271752404e-05       7.217838535816e+01 
       3.453098242308e-05       1.112005760983e+02 
       4.710035787578e-05       1.498884331126e+02 
       5.977277005826e-05       1.881114814278e+02 
       7.258088743844e-05       2.271438812882e+02 
       8.555839500781e-05       2.662685923719e+02 
       9.874027980111e-05       3.056135060409e+02 
       1.121631311648e-04       3.445147513337e+02 
       1.258654592662e-04       3.849542088134e+02 
       1.398880353512e-04       4.265263521122e+02 
       1.542742572323e-04       4.688003673908e+02 
       1.690705433901e-04       5.127851879958e+02 
       1.843267588470e-04       5.555103251301e+02 
       2.000966755614e-04       6.026681026770e+02 
       2.164384694108e-04       6.484291039157e+02 
       2.334152547658e-04       6.990300203179e+02 
       2.510956560729e-04       7.498172156255e+02 
       2.695544135706e-04       8.024084348020e+02 
       2.888730170493e-04       8.572433155942e+02 
       3.091403571768e-04       9.145663671716e+02 
       3.304533780477e-04       9.749715498376e+02 
       3.529177069963e-04       1.038054659001e+03 
       3.766482280812e-04       1.104788890771e+03 
       4.017695538620e-04       1.174627169182e+03 
       4.284163362617e-04       1.248685850976e+03 
       4.567333419493e-04       1.326655582680e+03 
       4.868752019581e-04       1.410130894297e+03 
       5.190057312392e-04       1.498051333476e+03 
       5.532967047571e-04       1.590848004446e+03 
       5.899259770133e-04       1.690307180284e+03 
       6.290748470283e-04       1.796044336809e+03 
       6.709246066165e-04       1.907188210195e+03 
       7.156522708389e-04       2.026419617939e+03 
       7.634255770745e-04       2.151892280687e+03 
       8.143974484078e-04       2.285701568730e+03 
       8.687002351379e-04       2.426611209725e+03 
       9.264401538832e-04       2.575984134458e+03 
       9.876924103178e-04       2.730865394511e+03 
       1.052497493554e-03       2.894530100119e+03 
       1.120859052384e-03       3.065582865165e+03 
       1.192743609051e-03       3.242803262076e+03 
       1.268082159131e-03       3.427124941648e+03 
       1.346773486766e-03       3.618661601526e+03 
       1.428688837617e-03       3.813350538356e+03 
       1.513677472745e-03       4.014098379783e+03 
       1.601572590844e-03       4.219114915901e+03 
       1.692197148043e-03       4.427521653406e+03 
       1.785369201553e-03       4.635726328354e+03 
       1.880906526929e-03       4.849525530662e+03 
       1.978630381932e-03       5.064595733645e+03 
       2.078368394263e-03       5.278871723261e+03 
       2.179956626676e-03       5.494241274414e+03 
       2.283240920056e-03       6.736420188609e+03 
       2.388077637059e-03       6.476369207176e+03 
       2.494333932225e-03       6.730791869293e+03 
       2.601887665670e-03       6.354843051522e+03 
       2.710627062106e-03       7.123583889603e+03 
       2.820450199063e-03       7.654845469144e+03 
       2.931264390595e-03       7.303126820787e+03 
       3.042985516808e-03       7.665409171640e+03 
       3.155537336083e-03       8.682612813751e+03 
       3.268850805896e-03       8.019413940971e+03 
       3.382863429585e-03       1.520859923088e+04 
       3.497518639941e-03       1.468795819537e+04 
       3.612765225688e-03       1.417202368391e+04 
       3.728556803546e-03       1.371315200990e+04 
       3.844851336166e-03       1.331413161274e+04 
       3.961610694676e-03       1.297359926407e+04 
       4.078800263588e-03       1.268782352600e+04 
       4.196388585225e-03       1.245188779116e+04 
       4.314347040568e-03       1.226048754085e+04 
       4.432649563356e-03       1.210836329945e+04 
       4.551272384293e-03       1.199054198976e+04 
       4.670193802412e-03       1.190249460073e+04 
       4.789393980792e-03       1.184016090466e+04 
       4.908854764068e-03       1.179997097840e+04 
       5.028559515389e-03       1.177879942196e+04 
       5.148492970702e-03       1.978570365304e+04 
       5.268641108461e-03       1.922283364110e+04 
       5.388991033041e-03       1.869564950617e+04 
       5.509530870350e-03       1.820753918205e+04 
       5.630249674269e-03       1.775958093934e+04 
       5.751137342728e-03       1.735385393597e+04 
       5.872184542345e-03       1.698660862690e+04 
       5.993382640681e-03       1.665630781427e+04 
       6.114723645289e-03       1.636138445268e+04 
       6.236200148792e-03       1.609857336514e+04 
       6.357805279361e-03       1.586555710833e+04 
       6.479532655993e-03       1.565993201878e+04 
       6.601376348094e-03       1.547923464083e+04 
       6.723330838888e-03       1.532023137612e+04 
       6.845390992277e-03       1.518168935254e+04 
       6.967552022776e-03       1.506135612713e+04 
       7.089809468204e-03       1.495757665643e+04 
       7.212159164871e-03       1.486823606042e+04 
       7.334597224980e-03       1.479194679435e+04 
       7.457120016047e-03       1.472738554856e+04 
       7.579724142121e-03       1.467319792812e+04 
       7.702406426647e-03       1.462835627586e+04 
       7.825163896790e-03       1.459168441350e+04 
       7.947993769097e-03       1.456258984499e+04 
       8.070893436367e-03       1.453993857811e+04 
       8.193860455611e-03       1.452288373210e+04 
       8.316892536999e-03       1.451129955247e+04 
       8.439987533713e-03       1.450381625748e+04 
       8.563143432615e-03       1.450025240921e+04 
       8.686358345662e-03       1.450046670934e+04 
       8.809630501995e-03       1.450341722937e+04 
       8.932958240652e-03       1.450919186911e+04 
       9.056340003838e-03       1.451698055355e+04 
       9.179774330721e-03       1.452700877683e+04 
       9.303259851696e-03       1.453835274057e+04 
       9.426795283075e-03       1.455106363273e+04 
       9.550379422183e-03       1.456528531238e+04 
       9.674011142814e-03       1.457990254124e+04 
       9.797689391023e-03       1.459571917954e+04 
       9.921413181216e-03       1.461154300178e+04 
       1.004518159254e-02       1.462871363968e+04 
       1.016899376551e-02       1.464501078910e+04 
       1.029284889891e-02       1.466174927780e+04 
       1.041674624687e-02       1.467850950289e+04 
       1.054068511619e-02       1.469507463025e+04 
       1.066466486384e-02       1.471183891205e+04 
       1.078868489460e-02       1.472793004768e+04 
       1.091274465896e-02       1.474420326886e+04 
       1.103684365101e-02       1.475893256556e+04 
       1.116098140665e-02       1.477451404110e+04 
       1.128515750180e-02       1.478812506890e+04 
       1.140937155078e-02       1.480170304917e+04 
       1.153362320480e-02       1.481474068005e+04 
       1.165791215057e-02       1.482709537398e+04 
       1.178223810894e-02       1.483874347097e+04 
       1.190660083374e-02       2.814168825238e+04 
       1.203100011061e-02       1.485936427521e+04 
       1.215543575594e-02       1.486849878295e+04 
       1.227990761592e-02       1.487666436870e+04 
       1.240441556560e-02       1.488420485031e+04 
       1.252895950805e-02       1.489058783605e+04 
       1.265353937361e-02       1.489628982043e+04 
       1.277815511910e-02       1.490093891553e+04 
       1.290280672722e-02       1.490468306200e+04 
       1.302749420588e-02       1.490772152241e+04 
       1.315221758765e-02       1.490991240827e+04 
       1.327697692923e-02       1.491084553412e+04 
       1.340177231096e-02       1.491095001688e+04 
       1.352660383639e-02       1.490999105633e+04 
       1.365147163188e-02       1.490820840305e+04 
       1.377637584622e-02       1.490569954106e+04 
       1.390131665030e-02       1.490187135683e+04 
       1.402629423684e-02       1.489766598535e+04 
       1.415130882009e-02       1.489180290295e+04 
       1.427636063559e-02       1.488522097647e+04 
       1.440144994002e-02       1.487802951846e+04 
       1.452657701094e-02       1.486942690452e+04 
       1.465174214671e-02       1.486038687366e+04 
       1.477694566632e-02       1.485019020665e+04 
       1.490218790930e-02       1.483923386431e+04 
       1.502746923565e-02       1.482729221883e+04 
       1.515279002576e-02       1.481444087425e+04 
       1.527815068041e-02       1.480075365754e+04 
       1.540355162074e-02       1.478607333763e+04 
       1.552899328823e-02       1.477064431155e+04 
       1.565447614480e-02       1.475424430927e+04 
       1.578000067278e-02       1.473725928430e+04 
       1.590556737504e-02       1.471915027519e+04 
       1.603117677502e-02       1.470047644342e+04 
       1.615682941689e-02       1.468079877570e+04 
       1.628252586562e-02       1.466063357573e+04 
       1.640826670718e-02       1.463919453181e+04 
       1.653405254862e-02       1.461710206766e+04 
       1.665988401833e-02       1.459439667972e+04 
       1.678576176616e-02       1.457082452598e+04 
       1.691168646366e-02       1.454682356856e+04 
       1.703765880432e-02       1.452148551095e+04 
       1.716367950378e-02       1.449565657672e+04 
       1.728974930011e-02       1.446925428544e+04 
       1.741586895408e-02       1.444201705324e+04 
       1.754203924942e-02       1.441401975339e+04 
       1.766826099319e-02       1.438543376126e+04 
       1.779453501607e-02       1.435615030005e+04 
       1.792086217266e-02       1.432618089731e+04 
       1.804724334192e-02       1.429568722629e+04 
       1.817367942747e-02       1.426430242485e+04 
       1.830017135804e-02       1.423246824837e+04 
       1.842672008782e-02       1.419997789074e+04 
       1.855332659693e-02       1.416689092737e+04 
       1.867999189183e-02       1.413309640211e+04 
       1.880671700581e-02       1.409878407592e+04 
       1.893350299945e-02       1.406373612826e+04 
       1.906035096111e-02       1.402848791490e+04 
       1.918726200745e-02       1.399250192232e+04 
       1.931423728397e-02       1.395582435567e+04 
       1.944127796556e-02       1.391883648060e+04 
       1.956838525707e-02       1.388112789516e+04 
       1.969556039387e-02       1.384296617622e+04 
       1.982280464252e-02       1.380440037806e+04 
       1.995011930137e-02       1.376520609489e+04 
       2.007750570119e-02       1.372568128982e+04 
       2.020496520590e-02       1.368547374427e+04 
       2.033249921322e-02       1.364496998713e+04 
       2.046010915541e-02       1.360394621627e+04 
       2.058779650001e-02       1.356245698041e+04 
       2.071556275061e-02       1.352059004267e+04 
       2.084340944762e-02       1.347829310738e+04 
       2.097133816913e-02       1.343568201444e+04 
       2.109935053172e-02       1.339256760427e+04 
       2.122744819133e-02       1.334905462366e+04 
       2.135563284417e-02       1.330514490010e+04 
       2.148390622763e-02       1.326090699276e+04 
       2.161227012127e-02       1.321623189801e+04 
       2.174072634775e-02       1.317136783977e+04 
       2.186927677388e-02       1.312606126113e+04 
       2.199792331167e-02       1.308038908722e+04 
       2.212666791938e-02       1.303446862679e+04 
       2.225551260269e-02       1.298812734226e+04 
       2.238445941578e-02       1.294161445067e+04 
       2.251351046256e-02       1.289473542923e+04 
       2.264266789788e-02       1.284754009795e+04 
       2.277193392879e-02       1.280014524911e+04 
       2.290131081587e-02       1.275241056573e+04 
       2.303080087450e-02       1.270452650398e+04 
       2.316040647633e-02       1.265622525547e+04 
       2.329013005066e-02       1.260776506586e+04 
       2.341997408592e-02       1.255899940311e+04 
       2.354994113123e-02       1.251010635257e+04 
       2.368003379792e-02       1.246095426468e+04 
       2.381025476118e-02       1.241161598401e+04 
       2.394060676175e-02       1.236209407407e+04 
       2.407109260762e-02       1.231232316089e+04 
       2.420171517586e-02       1.226242688735e+04 
       2.433247741442e-02       1.221231964501e+04 
       2.446338234408e-02       1.216204091464e+04 
       2.459443306040e-02       1.211161431002e+04 
       2.472563273578e-02       1.206097919742e+04 
       2.485698462154e-02       1.201026089834e+04 
       2.498849205013e-02       1.195939460032e+04 
       2.512015843735e-02       1.190839063147e+04 
       2.525198728473e-02       1.185721099592e+04 
       2.538398218188e-02       1.180600530928e+04 
       2.551614680907e-02       1.175462769043e+04 
       2.564848493972e-02       1.170314313080e+04 
       2.578100044314e-02       1.165152510070e+04 
       2.591369728728e-02       1.159988845387e+04 
       2.604657954159e-02       1.154815804396e+04 
       2.617965138001e-02       1.149635792819e+04 
       2.631291708403e-02       1.144442644342e+04 
       2.644638104589e-02       1.139248099140e+04 
       2.658004777188e-02       1.134048939593e+04 
       2.671392188578e-02       1.128839980898e+04 
       2.684800813241e-02       1.123624557864e+04 
       2.698231138131e-02       1.118411457875e+04 
       2.711683663060e-02       1.113189730028e+04 
       2.725158901091e-02       1.107967227555e+04 
       2.738657378955e-02       1.102741976817e+04 
       2.752179637474e-02       1.097519173524e+04 
       2.765726232014e-02       1.092288558378e+04 
       2.779297732938e-02       1.087055994850e+04 
       2.792894726094e-02       1.081830810745e+04 
       2.806517813313e-02       1.076603851786e+04 
       2.820167612928e-02       1.071373424468e+04 
       2.833844760313e-02       1.066146573063e+04 
       2.847549908449e-02       1.060918286168e+04 
       2.861283728508e-02       1.055699626461e+04 
       2.875046910466e-02       1.050475586689e+04 
       2.888840163733e-02       1.045259986956e+04 
       2.902664217819e-02       1.040045429541e+04 
       2.916519823024e-02       1.034837388072e+04 
       2.930407751159e-02       1.029628176097e+04 
       2.944328796292e-02       1.024430449582e+04 
       2.958283775536e-02       1.019236622011e+04 
       2.972273529865e-02       1.014046580846e+04 
       2.986298924970e-02       1.008862089206e+04 
       3.000360852147e-02       1.003683862701e+04 
       3.014460229234e-02       9.985127363861e+03 
       3.028598001580e-02       9.933538905732e+03 
       3.042775143072e-02       9.881965843669e+03 
       3.056992657196e-02       9.830480981301e+03 
       3.071251578153e-02       9.779084828002e+03 
       3.085552972032e-02       9.727767396092e+03 
       3.099897938032e-02       9.676577651540e+03 
       3.114287609747e-02       9.625411260088e+03 
       3.128723156511e-02       9.574355662218e+03 
       3.143205784809e-02       9.523471120404e+03 
       3.157736739762e-02       9.472587041917e+03 
       3.172317306681e-02       9.421857023415e+03 
       3.186948812697e-02       9.371216202236e+03 
       3.201632628489e-02       9.320684502931e+03 
       3.216370170080e-02       9.270253543567e+03 
       3.231162900742e-02       9.219952204855e+03 
       3.246012332996e-02       9.169792735825e+03 
       3.260920030718e-02       9.119653693842e+03 
       3.275887611358e-02       9.069762414725e+03 
       3.290916748280e-02       9.019896820987e+03 
       3.306009173232e-02       8.970182393851e+03 
       3.321166678947e-02       8.920596112891e+03 
       3.336391121901e-02       8.871146176791e+03 
       3.351684425214e-02       8.821825945675e+03 
       3.367048581728e-02       8.772581738544e+03 
       3.382485657255e-02       8.723494720416e+03 
       3.397997794027e-02       8.674563120552e+03 
       3.413587214336e-02       8.625734958789e+03 
       3.429256224404e-02       8.577066811394e+03 
       3.445007218483e-02       8.528500425106e+03 
       3.460842683208e-02       8.480112960330e+03 
       3.476765202223e-02       8.431796533915e+03 
       3.492777461092e-02       8.383663103903e+03 
       3.508882252531e-02       8.335673522299e+03 
       3.525082481973e-02       8.287852557993e+03 
       3.541381173494e-02       8.240143542612e+03 
       3.557781476143e-02       8.192536238789e+03 
       3.574286670682e-02       8.145082754417e+03 
       3.590900176792e-02       8.097776159709e+03 
       3.607625560775e-02       8.050619037483e+03 
       3.624466543792e-02       8.003595570146e+03 
       3.641427010683e-02       7.956716233791e+03 
       3.658511019418e-02       7.909945555384e+03 
       3.675722811244e-02       7.863377977357e+03 
       3.693066821564e-02       7.816947093662e+03 
       3.710547691646e-02       7.770584974936e+03 
       3.728170281210e-02       7.724379533557e+03 
       3.745939681988e-02       1.325322810743e+04 
       3.763861232344e-02       7.632432260512e+03 
       3.781940533049e-02       7.586677281490e+03 
       3.800183464332e-02       7.541009601749e+03 
       3.818596204323e-02       7.495501967601e+03 
       3.837185249029e-02       7.450133265485e+03 
       3.855957433991e-02       7.404898899967e+03 
       3.874919957807e-02       7.359789219497e+03 
       3.894080407701e-02       7.314794595901e+03 
       3.913446787357e-02       7.269913718252e+03 
       3.933027547263e-02       7.225205368044e+03 
       3.952831617842e-02       7.180598863714e+03 
       3.972868445668e-02       7.136108017249e+03 
       3.993148033126e-02       7.091726311814e+03 
       4.013680981900e-02       7.047475536795e+03 
       4.034478540753e-02       7.003339534627e+03 
       4.055552658089e-02       6.959313854849e+03 
       4.076916039892e-02       6.915379097775e+03 
       4.098582213699e-02       6.871575971614e+03 
       4.120565599371e-02       6.827856328458e+03 
       4.142881587529e-02       6.784232232668e+03 
       4.165546626659e-02       8.219670040885e+03 
       4.188578320051e-02       6.697283195388e+03 
       4.211995533902e-02       6.653934328800e+03 
       4.235818518140e-02       8.099267326874e+03 
       4.260069041785e-02       6.567508273845e+03 
       4.284770544938e-02       9.156508224487e+03 
       4.309948309888e-02       6.481342527813e+03 
       4.335629654219e-02       6.438361446298e+03 
       4.361844149342e-02       8.301022880296e+03 
       4.388623868477e-02       6.352587701542e+03 
       4.416003668888e-02       6.309754811356e+03 
       4.444021514045e-02       8.093521648270e+03 
       4.472718842542e-02       9.068715119706e+03 
       4.502140991923e-02       1.001640479460e+04 
       4.532337687240e-02       9.858075208849e+03 
       4.563363606241e-02       6.096042171285e+03 
       4.595279035594e-02       6.053312649778e+03 
       4.628150635745e-02       9.013001047402e+03 
       4.662052335927e-02       5.967814135825e+03 
       4.697066385798e-02       5.925002365457e+03 
       4.733284596397e-02       8.681710741325e+03 
       4.770809810960e-02       9.020892816115e+03 
       4.809757656116e-02       5.796129640578e+03 
       4.850258636609e-02       5.752945721599e+03 
       4.892460652842e-02       5.709640928947e+03 
       4.936532041064e-02       5.666130800837e+03 
       4.982665262223e-02       5.622438157346e+03 
       5.031081398728e-02       5.578456930273e+03 
       5.082035660265e-02       7.246491192565e+03 
       5.135824151913e-02       6.614527447854e+03 
       5.192792221052e-02       6.269698670168e+03 
       5.253344773071e-02       5.398668925679e+03 
       5.317959024461e-02       5.352256508632e+03 
       5.387200230555e-02       5.304895932058e+03 
       5.461740949513e-02       5.256441885899e+03 
       5.542384310286e-02       5.553335694587e+03 
       5.630091392248e-02       5.154543042304e+03 
       5.726011915630e-02       5.989270923738e+03 
       5.831515479554e-02       5.041983674823e+03 
