# Matter power spectrum P(k) at redshift z=0
# for k=1.01456e-05 to 1.56202 h/Mpc,
# number of wavenumbers equal to 564
#    1:k (h/Mpc)              2:P (Mpc/h)^3        
       1.014563320794e-05       6.204352987509e+01 
       2.297939978616e-05       1.369875549437e+02 
       3.585726429831e-05       2.101976531828e+02 
       4.881361974042e-05       2.829664347445e+02 
       6.188341767693e-05       3.555862087065e+02 
       7.510247762286e-05       4.282247615879e+02 
       8.850780616785e-05       5.016338295824e+02 
       1.021379300611e-04       5.749089634856e+02 
       1.160332475084e-04       6.503481956215e+02 
       1.302364019654e-04       7.265718681586e+02 
       1.447926827210e-04       8.039948189430e+02 
       1.597504565094e-04       8.845443334806e+02 
       1.751616342248e-04       9.650897541425e+02 
       1.910821764659e-04       1.049417150217e+03 
       2.075726410149e-04       1.136199796365e+03 
       2.246987743396e-04       1.225628406588e+03 
       2.425321476287e-04       1.318545643929e+03 
       2.611508355255e-04       1.415274302214e+03 
       2.806401323547e-04       1.516182533169e+03 
       3.010932959253e-04       1.622086578942e+03 
       3.226123025719e-04       1.732504928462e+03 
       3.453085885882e-04       1.848905900200e+03 
       3.693037422282e-04       1.971371290966e+03 
       3.947300967475e-04       2.100622935442e+03 
       4.217311585205e-04       2.237262205624e+03 
       4.504617855507e-04       2.382381894083e+03 
       4.810880119106e-04       2.535833134791e+03 
       5.137863951440e-04       2.699365905689e+03 
       5.487427502339e-04       2.872896305190e+03 
       5.861501308847e-04       3.057927912252e+03 
       6.262059335936e-04       3.255150953136e+03 
       6.691080399913e-04       3.464864633960e+03 
       7.150499847494e-04       3.688287209963e+03 
       7.642152424155e-04       3.925606660462e+03 
       8.167708615791e-04       4.176661677089e+03 
       8.728608227147e-04       4.443494245056e+03 
       9.325996293359e-04       4.725615887978e+03 
       9.960667255667e-04       5.022140530083e+03 
       1.063302333245e-03       5.333642343632e+03 
       1.134305198666e-03       5.660187985230e+03 
       1.209032538563e-03       5.998491030793e+03 
       1.287402211057e-03       6.351451575619e+03 
       1.369296864744e-03       6.716146077270e+03 
       1.454569596431e-03       7.090362155811e+03 
       1.543050518130e-03       7.473644277544e+03 
       1.634553612109e-03       7.866428304343e+03 
       1.728883325667e-03       8.266453134565e+03 
       1.825840491953e-03       8.669635541494e+03 
       1.925227321213e-03       9.078221807033e+03 
       2.026851355582e-03       9.492337382795e+03 
       2.130528399359e-03       9.239720540575e+03 
       2.236084517860e-03       1.031840283925e+04 
       2.343357242890e-03       1.034389012796e+04 
       2.452196138959e-03       1.071028572084e+04 
       2.562462880186e-03       1.072964496740e+04 
       2.674030971867e-03       1.146300529319e+04 
       2.786785229097e-03       1.193201572776e+04 
       2.900621102266e-03       1.066835536105e+04 
       3.015443918203e-03       1.235341728611e+04 
       3.131168087560e-03       1.315483442207e+04 
       3.247716314172e-03       1.294688316895e+04 
       3.365018830454e-03       1.339935133803e+04 
       3.483012673988e-03       1.477617669944e+04 
       3.601641014007e-03       1.516288038352e+04 
       3.720852531748e-03       1.553961584939e+04 
       3.840600855519e-03       1.591940285718e+04 
       3.960844049123e-03       1.629003247215e+04 
       4.081544151017e-03       1.666046237566e+04 
       4.202666760763e-03       1.702057354973e+04 
       4.324180668992e-03       1.447660989762e+04 
       4.446057526977e-03       1.509142834684e+04 
       4.568271551995e-03       1.567638862794e+04 
       4.690799264842e-03       1.623278597175e+04 
       4.813619256092e-03       1.676222506976e+04 
       4.936711977987e-03       1.726642641268e+04 
       5.060059559122e-03       1.774711502995e+04 
       5.183645639346e-03       1.820599344566e+04 
       5.307455222627e-03       1.864466215353e+04 
       5.431474545787e-03       1.906462769251e+04 
       5.555690961340e-03       1.946723568466e+04 
       5.680092832787e-03       1.985371190178e+04 
       5.804669440964e-03       2.022518081623e+04 
       5.929410900192e-03       2.058269595227e+04 
       6.054308083094e-03       2.092720152083e+04 
       6.179352553136e-03       2.125959382117e+04 
       6.304536504001e-03       2.158063435750e+04 
       6.429852705050e-03       1.858642276415e+04 
       6.555294452200e-03       1.910065095917e+04 
       6.680855523620e-03       1.959069690316e+04 
       6.806530139729e-03       2.005955777341e+04 
       6.932312927033e-03       2.050775866257e+04 
       7.058198885391e-03       2.093610030484e+04 
       7.184183358349e-03       2.134554024985e+04 
       7.310262006229e-03       2.173769223442e+04 
       7.436430781675e-03       2.211232615254e+04 
       7.562685907423e-03       2.247088432367e+04 
       7.689023856056e-03       2.281403382860e+04 
       7.815441331550e-03       2.314264940662e+04 
       7.941935252440e-03       2.345787664677e+04 
       8.068502736435e-03       2.375982358991e+04 
       8.195141086358e-03       2.404970853211e+04 
       8.321847777265e-03       2.432748100249e+04 
       8.448620444658e-03       2.459455542354e+04 
       8.575456873653e-03       2.485045614707e+04 
       8.702354989055e-03       2.509688197463e+04 
       8.829312846225e-03       2.533380271519e+04 
       8.956328622682e-03       2.556138527774e+04 
       9.083400610380e-03       2.578010288285e+04 
       9.210527208579e-03       2.599089074250e+04 
       9.337706917280e-03       2.619359378400e+04 
       9.464938331167e-03       2.638866197375e+04 
       9.592220134009e-03       2.657663154782e+04 
       9.719551093483e-03       2.675754715610e+04 
       9.846930056396e-03       2.693156482355e+04 
       9.974355944249e-03       2.709810860244e+04 
       1.010182774914e-02       2.726059569605e+04 
       1.022934452998e-02       2.741604588533e+04 
       1.035690540893e-02       2.756527514426e+04 
       1.048450956816e-02       2.770930897742e+04 
       1.061215624684e-02       2.784794115736e+04 
       1.073984473827e-02       2.798098855946e+04 
       1.086757438728e-02       2.810842510229e+04 
       1.099534458783e-02       2.823230128540e+04 
       1.112315478073e-02       2.835056897798e+04 
       1.125100445151e-02       2.846435443752e+04 
       1.137889312851e-02       2.857376490602e+04 
       1.150682038104e-02       2.867810196208e+04 
       1.163478581769e-02       2.877856766173e+04 
       1.176278908475e-02       2.887497033005e+04 
       1.189082986478e-02       2.896689069130e+04 
       1.201890787520e-02       2.905524043347e+04 
       1.214702286705e-02       2.913930766913e+04 
       1.227517462383e-02       2.921969563372e+04 
       1.240336296037e-02       2.929661728969e+04 
       1.253158772183e-02       2.936945077534e+04 
       1.265984878277e-02       2.943873412402e+04 
       1.278814604625e-02       2.950478135272e+04 
       1.291647944304e-02       2.956743135516e+04 
       1.304484893085e-02       2.962659590839e+04 
       1.317325449367e-02       2.968284907147e+04 
       1.330169614109e-02       2.973530772838e+04 
       1.343017390771e-02       2.978469990344e+04 
       1.355868785263e-02       2.983140796101e+04 
       1.368723805894e-02       2.987444710096e+04 
       1.381582463324e-02       2.991515140947e+04 
       1.394444770525e-02       2.995293676407e+04 
       1.407310742741e-02       2.998722846021e+04 
       1.420180397455e-02       3.001868703822e+04 
       1.433053754360e-02       3.004865682252e+04 
       1.445930835327e-02       3.007430410710e+04 
       1.458811664385e-02       3.009829321441e+04 
       1.471696267697e-02       3.011906208366e+04 
       1.484584673542e-02       3.013814459516e+04 
       1.497476912301e-02       3.015391686277e+04 
       1.510373016438e-02       3.016703538736e+04 
       1.523273020498e-02       3.017793042377e+04 
       1.536176961090e-02       3.018681065710e+04 
       1.549084876889e-02       3.019298618440e+04 
       1.561996808624e-02       3.019724118507e+04 
       1.574912799084e-02       3.019859496202e+04 
       1.587832893114e-02       2.511697654750e+04 
       1.600757137619e-02       3.019500729389e+04 
       1.613685581568e-02       3.018986188632e+04 
       1.626618276004e-02       3.018279293511e+04 
       1.639555274045e-02       3.017348393043e+04 
       1.652496630904e-02       3.016223295299e+04 
       1.665442403893e-02       3.014899992906e+04 
       1.678392652441e-02       3.013398278471e+04 
       1.691347438108e-02       3.011610493517e+04 
       1.704306824607e-02       3.009693626274e+04 
       1.717270877815e-02       3.007560150893e+04 
       1.730239665801e-02       3.005278711408e+04 
       1.743213258847e-02       3.002797050384e+04 
       1.756191729469e-02       3.000133734742e+04 
       1.769175152447e-02       2.997273686419e+04 
       1.782163604850e-02       2.994268519756e+04 
       1.795157166069e-02       2.991098164490e+04 
       1.808155917840e-02       2.987701108081e+04 
       1.821159944287e-02       2.984177023228e+04 
       1.834169331947e-02       2.980496592578e+04 
       1.847184169813e-02       2.976657450440e+04 
       1.860204549365e-02       2.972648774403e+04 
       1.873230564618e-02       2.968487826782e+04 
       1.886262312152e-02       2.964184481797e+04 
       1.899299891163e-02       2.959725539307e+04 
       1.912343403508e-02       2.955122298072e+04 
       1.925392953743e-02       2.950379506620e+04 
       1.938448649180e-02       2.945484210753e+04 
       1.951510599932e-02       2.940457466451e+04 
       1.964578918965e-02       2.935296614606e+04 
       1.977653722156e-02       2.929998050011e+04 
       1.990735128341e-02       2.924564217613e+04 
       2.003823259379e-02       2.919016988317e+04 
       2.016918240208e-02       2.913336409153e+04 
       2.030020198909e-02       2.907538637944e+04 
       2.043129266765e-02       2.901608633122e+04 
       2.056245578334e-02       2.895571413102e+04 
       2.069369271510e-02       2.889406983054e+04 
       2.082500487596e-02       2.883126395620e+04 
       2.095639371376e-02       2.876745248955e+04 
       2.108786071193e-02       2.870253867288e+04 
       2.121940739018e-02       2.863649575532e+04 
       2.135103530539e-02       2.856936376516e+04 
       2.148274605236e-02       2.850131445069e+04 
       2.161454126470e-02       2.843220698763e+04 
       2.174642261568e-02       2.836214864491e+04 
       2.187839181913e-02       2.829104840306e+04 
       2.201045063041e-02       2.821911509455e+04 
       2.214260084730e-02       2.814619207784e+04 
       2.227484431105e-02       2.807240450620e+04 
       2.240718290738e-02       2.799764052969e+04 
       2.253961856750e-02       2.792218388761e+04 
       2.267215326924e-02       2.299919079869e+04 
       2.280478903816e-02       2.776855834366e+04 
       2.293752794867e-02       2.769055932279e+04 
       2.307037212527e-02       2.761179566572e+04 
       2.320332374372e-02       2.753220336862e+04 
       2.333638503235e-02       2.745190066266e+04 
       2.346955827337e-02       2.737088339610e+04 
       2.360284580416e-02       2.728920550013e+04 
       2.373625001872e-02       2.720676506272e+04 
       2.386977336909e-02       2.712370850714e+04 
       2.400341836680e-02       2.703987934075e+04 
       2.413718758444e-02       2.695558243864e+04 
       2.427108365720e-02       2.687057608779e+04 
       2.440510928451e-02       2.678494355043e+04 
       2.453926723174e-02       2.669886935218e+04 
       2.467356033191e-02       2.661216048515e+04 
       2.480799148747e-02       2.652487072941e+04 
       2.494256367220e-02       2.643715691492e+04 
       2.507727993307e-02       2.634880572361e+04 
       2.521214339225e-02       2.626000531948e+04 
       2.534715724913e-02       2.617058066236e+04 
       2.548232478244e-02       2.608090386366e+04 
       2.561764935243e-02       2.599067977270e+04 
       2.575313440312e-02       2.589994462805e+04 
       2.588878346465e-02       2.580885009927e+04 
       2.602460015566e-02       2.571737496731e+04 
       2.616058818582e-02       2.562555742245e+04 
       2.629675135838e-02       2.553332852727e+04 
       2.643309357289e-02       2.544072193736e+04 
       2.656961882789e-02       2.534771749285e+04 
       2.670633122386e-02       2.525442254477e+04 
       2.684323496614e-02       2.516076807910e+04 
       2.698033436801e-02       2.506681472585e+04 
       2.711763385385e-02       2.497259102451e+04 
       2.725513796251e-02       2.487809433371e+04 
       2.739285135065e-02       2.478319081892e+04 
       2.753077879636e-02       2.468826136189e+04 
       2.766892520277e-02       2.459291370668e+04 
       2.780729560192e-02       2.449735272932e+04 
       2.794589515871e-02       2.440165225445e+04 
       2.808472917498e-02       2.430577558071e+04 
       2.822380309382e-02       2.420957326634e+04 
       2.836312250398e-02       2.411319536620e+04 
       2.850269314448e-02       2.401667081566e+04 
       2.864252090939e-02       2.392009498813e+04 
       2.878261185282e-02       2.382326488485e+04 
       2.892297219406e-02       2.372624934425e+04 
       2.906360832302e-02       2.362919716186e+04 
       2.920452680574e-02       2.353192336415e+04 
       2.934573439028e-02       2.343465423623e+04 
       2.948723801276e-02       2.333720209176e+04 
       2.962904480368e-02       2.323964370714e+04 
       2.977116209449e-02       2.314211174590e+04 
       2.991359742444e-02       2.304439480138e+04 
       3.005635854773e-02       2.294665079748e+04 
       3.019945344097e-02       2.284883482441e+04 
       3.034289031092e-02       2.275098729772e+04 
       3.048667760265e-02       2.265312219274e+04 
       3.063082400795e-02       2.255523964745e+04 
       3.077533847420e-02       2.245735583757e+04 
       3.092023021361e-02       2.235933066844e+04 
       3.106550871287e-02       2.226147834669e+04 
       3.121118374322e-02       2.216348567588e+04 
       3.135726537103e-02       2.206555971834e+04 
       3.150376396882e-02       2.196769653069e+04 
       3.165069022685e-02       2.186976718802e+04 
       3.179805516520e-02       2.177192982170e+04 
       3.194587014647e-02       2.167412710898e+04 
       3.209414688906e-02       2.157635446141e+04 
       3.224289748112e-02       2.147869608307e+04 
       3.239213439516e-02       2.138092523879e+04 
       3.254187050342e-02       2.128341235281e+04 
       3.269211909397e-02       2.118589199237e+04 
       3.284289388763e-02       2.108839910403e+04 
       3.299420905580e-02       2.099101908517e+04 
       3.314607923912e-02       2.089381540285e+04 
       3.329851956721e-02       2.079665118953e+04 
       3.345154567937e-02       2.069944135672e+04 
       3.360517374639e-02       2.060244772376e+04 
       3.375942049358e-02       2.050554483009e+04 
       3.391430322499e-02       2.040870764687e+04 
       3.406983984903e-02       2.031203618733e+04 
       3.422604890542e-02       2.021550445731e+04 
       3.438294959375e-02       2.011900047989e+04 
       3.454056180361e-02       2.002267602603e+04 
       3.469890614643e-02       1.992654265197e+04 
       3.485800398922e-02       1.983045158380e+04 
       3.501787749029e-02       1.973450531919e+04 
       3.517854963699e-02       1.963872369407e+04 
       3.534004428589e-02       1.954297725876e+04 
       3.550238620525e-02       1.944742410181e+04 
       3.566560112019e-02       1.935204062460e+04 
       3.582971576064e-02       1.925682470969e+04 
       3.599475791234e-02       1.916173783594e+04 
       3.616075647105e-02       1.906679866778e+04 
       3.632774150031e-02       1.897192211947e+04 
       3.649574429298e-02       1.887723325302e+04 
       3.666479743681e-02       1.878272274409e+04 
       3.683493488447e-02       1.868837838435e+04 
       3.700619202832e-02       1.859412809803e+04 
       3.717860578035e-02       1.850004107330e+04 
       3.735221465768e-02       1.840608872956e+04 
       3.752705887413e-02       1.831234775962e+04 
       3.770318043837e-02       1.821869110297e+04 
       3.788062325923e-02       1.812520770538e+04 
       3.805943325877e-02       1.803181498740e+04 
       3.823965849379e-02       1.793866575863e+04 
       3.842134928664e-02       1.784561156843e+04 
       3.860455836605e-02       1.775259580650e+04 
       3.878934101907e-02       1.765986186808e+04 
       3.897575525496e-02       1.756718151472e+04 
       3.916386198240e-02       1.747459605264e+04 
       3.935372520119e-02       1.738218490812e+04 
       3.954541220989e-02       1.728996129747e+04 
       3.973899383103e-02       1.719780009389e+04 
       3.993454465566e-02       1.710573071828e+04 
       4.013214330929e-02       1.701379039566e+04 
       4.033187274140e-02       1.692196760467e+04 
       4.053382054112e-02       1.683024227602e+04 
       4.073807928197e-02       1.413251956602e+04 
       4.094474689871e-02       1.664704476637e+04 
       4.115392710018e-02       1.655554603091e+04 
       4.136572982202e-02       1.646418518123e+04 
       4.158027172419e-02       1.637284590892e+04 
       4.179767673832e-02       1.628159501843e+04 
       4.201807667131e-02       1.619030088797e+04 
       4.224161187181e-02       1.609913991480e+04 
       4.246843196771e-02       1.600795686213e+04 
       4.269869668370e-02       1.591684679325e+04 
       4.293257674945e-02       1.582568088341e+04 
       4.317025491046e-02       1.573454168836e+04 
       4.341192705568e-02       1.564337374480e+04 
       4.365780347814e-02       1.555216540408e+04 
       4.390811028759e-02       1.546094312312e+04 
       4.416309099717e-02       1.536965006215e+04 
       4.442300831013e-02       1.527823740932e+04 
       4.468814613693e-02       1.518676343129e+04 
       4.495881187856e-02       1.509513324065e+04 
       4.523533901853e-02       1.500340714255e+04 
       4.551809007369e-02       1.491148609963e+04 
       4.580745996391e-02       1.303048528745e+04 
       4.610387987203e-02       1.472711420317e+04 
       4.640782168011e-02       1.270439042216e+04 
       4.671980308524e-02       1.454171467275e+04 
       4.704039352018e-02       1.444858295818e+04 
       4.737022103064e-02       1.435508262955e+04 
       4.770998029462e-02       1.426125438041e+04 
       4.806044201068e-02       1.416690870436e+04 
       4.842246393452e-02       1.339166238805e+04 
       4.879700390883e-02       1.397680420252e+04 
       4.918513531459e-02       1.388086170582e+04 
       4.958806547747e-02       1.378423630297e+04 
       5.000715769685e-02       1.368686302408e+04 
       5.044395773582e-02       1.358862326605e+04 
       5.090022582808e-02       1.348947043499e+04 
       5.137797553483e-02       1.338919955062e+04 
       5.187952113654e-02       1.146461977148e+04 
       5.240753568712e-02       1.318471736236e+04 
       5.296512240767e-02       1.169549074698e+04 
       5.355590276146e-02       1.297370502204e+04 
       5.418412531908e-02       1.286507895359e+04 
       5.485480033074e-02       1.275378688424e+04 
       5.557386560150e-02       1.263937573249e+04 
       5.634838942562e-02       1.252123290947e+04 
       5.718681515271e-02       1.239826658724e+04 
       5.809924778577e-02       1.226965046136e+04 
       5.909777272964e-02       1.213358892904e+04 
       6.019677488425e-02       1.198801975658e+04 
       6.141318386495e-02       1.183007788765e+04 
