# Matter power spectrum P(k) at redshift z=0
# for k=9.07822e-06 to 1.76711 h/Mpc,
# number of wavenumbers equal to 557
#    1:k (h/Mpc)              2:P (Mpc/h)^3        
       9.078219901284e-06       9.556687764146e+01 
       2.122506627613e-05       2.176892250878e+02 
       3.340806390704e-05       3.369292930647e+02 
       4.565635009087e-05       4.552795196270e+02 
       5.799947662562e-05       5.726579278596e+02 
       7.046764423250e-05       6.905359445477e+02 
       8.309194350347e-05       8.087829278490e+02 
       9.590460525491e-05       9.286132622769e+02 
       1.089392631904e-04       1.048961510249e+03 
       1.222312318032e-04       1.172984470476e+03 
       1.358178024675e-04       1.297948327695e+03 
       1.497385606576e-04       1.423233022719e+03 
       1.640357271709e-04       1.553967363383e+03 
       1.787545260806e-04       1.687110031881e+03 
       1.939435818554e-04       1.824942242149e+03 
       2.096553476059e-04       1.965564364844e+03 
       2.259465656559e-04       2.111699426081e+03 
       2.428787605065e-04       2.262793592874e+03 
       2.605187626121e-04       2.420141591271e+03 
       2.789392590808e-04       2.583041932131e+03 
       2.982193642398e-04       2.753258921318e+03 
       3.184451987639e-04       2.931451177549e+03 
       3.397104605129e-04       3.118088821362e+03 
       3.621169631475e-04       3.312722523805e+03 
       3.857751098222e-04       3.519190488727e+03 
       4.108042587613e-04       3.734830761886e+03 
       4.373329255139e-04       3.962833887313e+03 
       4.654987537508e-04       4.203875785291e+03 
       4.954481737907e-04       4.459278317105e+03 
       5.273356575625e-04       4.729550408378e+03 
       5.613224733010e-04       5.015593771915e+03 
       5.975748467381e-04       5.318818839747e+03 
       6.362614523731e-04       5.640696362969e+03 
       6.775501930197e-04       5.981510081787e+03 
       7.216042813669e-04       6.342785044207e+03 
       7.685777138126e-04       6.723321074020e+03 
       8.186103193385e-04       7.127856036716e+03 
       8.718226632696e-04       7.551964362791e+03 
       9.283111697161e-04       7.998944810119e+03 
       9.881438760667e-04       8.468134567075e+03 
       1.051357228588e-03       8.957148932828e+03 
       1.117954259158e-03       9.466369793182e+03 
       1.187904352993e-03       9.996839266678e+03 
       1.261144645783e-03       1.054402096814e+04 
       1.337582907816e-03       1.110750769436e+04 
       1.417101617827e-03       1.168617291285e+04 
       1.499562828163e-03       1.227485455195e+04 
       1.584813388823e-03       1.287534915310e+04 
       1.672690127086e-03       1.348585800578e+04 
       1.763024655428e-03       1.410473407527e+04 
       1.855647580510e-03       1.472773157174e+04 
       1.950391988753e-03       1.534784382423e+04 
       2.047096173573e-03       1.597460732857e+04 
       2.145605637166e-03       1.195610682267e+04 
       2.245774443896e-03       1.722680093475e+04 
       2.347466025318e-03       1.752383920423e+04 
       2.450553543347e-03       1.492683567234e+04 
       2.554919913365e-03       1.601138053551e+04 
       2.660457577796e-03       1.903319066158e+04 
       2.767068106388e-03       1.982217624553e+04 
       2.874661684734e-03       2.035439394656e+04 
       2.983156538781e-03       1.546635273224e+04 
       3.092478331136e-03       1.939808678694e+04 
       3.202559555015e-03       1.625102388798e+04 
       3.313338943768e-03       1.721066122055e+04 
       3.424760907729e-03       1.819001754369e+04 
       3.536775005546e-03       1.916804606793e+04 
       3.649335453739e-03       2.013044523574e+04 
       3.762400675838e-03       2.106734381375e+04 
       3.875932890769e-03       2.197236980292e+04 
       3.989897739096e-03       2.284192716061e+04 
       4.104263945011e-03       2.367440590735e+04 
       4.219003011612e-03       2.446960620520e+04 
       4.334088946820e-03       2.522823798570e+04 
       4.449498017278e-03       2.595160670927e+04 
       4.565208527612e-03       2.664145920126e+04 
       4.681200622606e-03       2.729975049639e+04 
       4.797456109964e-03       2.128627478664e+04 
       4.913958301545e-03       2.209357915244e+04 
       5.030691871111e-03       2.291568816776e+04 
       5.147642726849e-03       2.373770416973e+04 
       5.264797897053e-03       2.455048273261e+04 
       5.382145427561e-03       2.534961089797e+04 
       5.499674289663e-03       2.612754357259e+04 
       5.617374297344e-03       2.688378676702e+04 
       5.735236032853e-03       2.761463363297e+04 
       5.853250779689e-03       2.831909725342e+04 
       5.971410462219e-03       2.899542835930e+04 
       6.089707591197e-03       2.964589476996e+04 
       6.208135214573e-03       3.026662737997e+04 
       6.326686873024e-03       3.086091633185e+04 
       6.445356559699e-03       3.142961493673e+04 
       6.564138683766e-03       3.197140552853e+04 
       6.683028037335e-03       3.249075343078e+04 
       6.802019765432e-03       3.298646057204e+04 
       6.921109338707e-03       3.345859280784e+04 
       7.040292528600e-03       3.390938639156e+04 
       7.159565384716e-03       3.434083965084e+04 
       7.278924214199e-03       3.475062975800e+04 
       7.398365562897e-03       3.514384705384e+04 
       7.517886198161e-03       3.551921330929e+04 
       7.637483093101e-03       3.587729313156e+04 
       7.757153412178e-03       3.621916807552e+04 
       7.876894497996e-03       3.654578000281e+04 
       7.996703859185e-03       3.685857696190e+04 
       8.116579159275e-03       3.715681206297e+04 
       8.236518206473e-03       3.744173128100e+04 
       8.356518944253e-03       3.771473334110e+04 
       8.476579442699e-03       3.797502831462e+04 
       8.596697890522e-03       3.822372661710e+04 
       8.716872587701e-03       3.846107463439e+04 
       8.837101938692e-03       3.868804836454e+04 
       8.957384446149e-03       3.890480248321e+04 
       9.077718705129e-03       3.911134176590e+04 
       9.198103397722e-03       3.930879080725e+04 
       9.318537288090e-03       3.949638040998e+04 
       9.439019217860e-03       3.967486748302e+04 
       9.559548101866e-03       3.984553758858e+04 
       9.680122924189e-03       4.000750865227e+04 
       9.800742734492e-03       4.016146275828e+04 
       9.921406644611e-03       4.030843638894e+04 
       1.004211382539e-02       4.044623548622e+04 
       1.016286350374e-02       4.057754174897e+04 
       1.028365495990e-02       4.070168186851e+04 
       1.040448752490e-02       4.081935262509e+04 
       1.052536057819e-02       4.092972116533e+04 
       1.064627354545e-02       4.103406103155e+04 
       1.076722589650e-02       4.113099638178e+04 
       1.088821714346e-02       4.122299608733e+04 
       1.100924683889e-02       2.986660288923e+04 
       1.113031457420e-02       3.016177142846e+04 
       1.125141997807e-02       2.991030950954e+04 
       1.137256271504e-02       4.152930217195e+04 
       1.149374248413e-02       4.159248182131e+04 
       1.161495901766e-02       4.164950755934e+04 
       1.173621208001e-02       4.170127981247e+04 
       1.185750146662e-02       4.174885725872e+04 
       1.197882700292e-02       4.179023274894e+04 
       1.210018854346e-02       4.182734173117e+04 
       1.222158597097e-02       4.185998230757e+04 
       1.234301919562e-02       4.188745693537e+04 
       1.246448815426e-02       4.191062520393e+04 
       1.258599280969e-02       4.192879491710e+04 
       1.270753315008e-02       4.194354503937e+04 
       1.282910918833e-02       4.195286143017e+04 
       1.295072096157e-02       4.195834195018e+04 
       1.307236853062e-02       4.196094036375e+04 
       1.319405197955e-02       4.195745086535e+04 
       1.331577141528e-02       4.195065046147e+04 
       1.343752696716e-02       4.194026826375e+04 
       1.355931878666e-02       4.192600637799e+04 
       1.368114704702e-02       4.190765723346e+04 
       1.380301194301e-02       4.188624710635e+04 
       1.392491369065e-02       4.186071827925e+04 
       1.404685252699e-02       4.183181176132e+04 
       1.416882870995e-02       4.179969343190e+04 
       1.429084251811e-02       4.176365031905e+04 
       1.441289425059e-02       4.172425590712e+04 
       1.453498422695e-02       4.168153620523e+04 
       1.465711278705e-02       4.163672909957e+04 
       1.477928029105e-02       4.158819770669e+04 
       1.490148711931e-02       4.153644079504e+04 
       1.502373367236e-02       4.148134009808e+04 
       1.514602037096e-02       4.142389014601e+04 
       1.526834765604e-02       4.136279007208e+04 
       1.539071598877e-02       4.129967792049e+04 
       1.551312585062e-02       4.123316937625e+04 
       1.563557774344e-02       4.116425452703e+04 
       1.575807218951e-02       4.109203211103e+04 
       1.588060973170e-02       4.101809451175e+04 
       1.600319093356e-02       4.094078592095e+04 
       1.612581637949e-02       4.086148361733e+04 
       1.624848667488e-02       4.077958243319e+04 
       1.637120244632e-02       4.069490259920e+04 
       1.649396434176e-02       4.060827306165e+04 
       1.661677303075e-02       4.051916539310e+04 
       1.673962920465e-02       4.042762575813e+04 
       1.686253357688e-02       4.033404247394e+04 
       1.698548688318e-02       4.023818578356e+04 
       1.710848988191e-02       4.014051783983e+04 
       1.723154335431e-02       4.004026817075e+04 
       1.735464810482e-02       3.993746077331e+04 
       1.747780496143e-02       3.983404480731e+04 
       1.760101477599e-02       3.972750873482e+04 
       1.772427842459e-02       3.961988225073e+04 
       1.784759680792e-02       3.951006354336e+04 
       1.797097085170e-02       3.939827337566e+04 
       1.809440150702e-02       3.928460559523e+04 
       1.821788975084e-02       3.916956535462e+04 
       1.834143658641e-02       3.905235511486e+04 
       1.846504304370e-02       3.893382021580e+04 
       1.858871017992e-02       3.881361945866e+04 
       1.871243907999e-02       3.869168113266e+04 
       1.883623085709e-02       3.856822287161e+04 
       1.896008665316e-02       3.844321391864e+04 
       1.908400763947e-02       3.831682629640e+04 
       1.920799501719e-02       3.818896143985e+04 
       1.933205001799e-02       3.805972615899e+04 
       1.945617390462e-02       3.792930361423e+04 
       1.958036797163e-02       3.779704738603e+04 
       1.970463354590e-02       3.766393326398e+04 
       1.982897198744e-02       3.752937774240e+04 
       1.995338469001e-02       3.739354050243e+04 
       2.007787308187e-02       3.725659114789e+04 
       2.020243862651e-02       3.711847916214e+04 
       2.032708282347e-02       3.697935480926e+04 
       2.045180720906e-02       3.683921022678e+04 
       2.057661335724e-02       3.669783580030e+04 
       2.070150288043e-02       3.655547819252e+04 
       2.082647743041e-02       3.641205734989e+04 
       2.095153869921e-02       3.626767986250e+04 
       2.107668842001e-02       3.612270028236e+04 
       2.120192836816e-02       3.597649891498e+04 
       2.132726036212e-02       3.582940463030e+04 
       2.145268626448e-02       3.568164356835e+04 
       2.157820798305e-02       3.553308816598e+04 
       2.170382747191e-02       3.538398624743e+04 
       2.182954673253e-02       3.523356274322e+04 
       2.195536781496e-02       3.508289280384e+04 
       2.208129281897e-02       3.493108451114e+04 
       2.220732389534e-02       3.477883540120e+04 
       2.233346324706e-02       3.462609618553e+04 
       2.245971313069e-02       3.447279782204e+04 
       2.258607585770e-02       3.431852896018e+04 
       2.271255379586e-02       3.416424943927e+04 
       2.283914937065e-02       3.400912477613e+04 
       2.296586506680e-02       3.385347831417e+04 
       2.309270342978e-02       3.369742106385e+04 
       2.321966706743e-02       3.354098205579e+04 
       2.334675865152e-02       3.338434123300e+04 
       2.347398091951e-02       3.322678482080e+04 
       2.360133667627e-02       3.306913581253e+04 
       2.372882879586e-02       3.291105098887e+04 
       2.385646022344e-02       3.275291453809e+04 
       2.398423397713e-02       3.259414066609e+04 
       2.411215315007e-02       3.243530913357e+04 
       2.424022091243e-02       3.227612478663e+04 
       2.436844051354e-02       3.211666534182e+04 
       2.449681528410e-02       3.195706517426e+04 
       2.462534863846e-02       3.179718107440e+04 
       2.475404407696e-02       3.163732924800e+04 
       2.488290518838e-02       3.147715793143e+04 
       2.501193565243e-02       3.131688775857e+04 
       2.514113924239e-02       3.115657035071e+04 
       2.527051982781e-02       3.099615113688e+04 
       2.540008137729e-02       3.083558963564e+04 
       2.552982796138e-02       3.067488733430e+04 
       2.565976375562e-02       3.051441205957e+04 
       2.578989304359e-02       3.035383361850e+04 
       2.592022022018e-02       3.019323510262e+04 
       2.605074979493e-02       3.003263799366e+04 
       2.618148639551e-02       2.987212523454e+04 
       2.631243477127e-02       2.971162914729e+04 
       2.644359979703e-02       2.955122668574e+04 
       2.657498647695e-02       2.939096651519e+04 
       2.670659994850e-02       2.923073428939e+04 
       2.683844548674e-02       2.907076845854e+04 
       2.697052850855e-02       2.891085750225e+04 
       2.710285457724e-02       2.875110821462e+04 
       2.723542940718e-02       2.859153674079e+04 
       2.736825886869e-02       2.843223587343e+04 
       2.750134899312e-02       2.827285530516e+04 
       2.763470597813e-02       2.811395520814e+04 
       2.776833619318e-02       2.795523210791e+04 
       2.790224618522e-02       2.779663600094e+04 
       2.803644268469e-02       2.763850941122e+04 
       2.817093261167e-02       2.748047022462e+04 
       2.830572308239e-02       2.732288962599e+04 
       2.844082141593e-02       2.716537180251e+04 
       2.857623514125e-02       2.700832455684e+04 
       2.871197200455e-02       2.685151436601e+04 
       2.884803997686e-02       2.669509831355e+04 
       2.898444726206e-02       2.653898258066e+04 
       2.912120230520e-02       2.638316771116e+04 
       2.925831380121e-02       2.622779634402e+04 
       2.939579070400e-02       2.607283386203e+04 
       2.953364223596e-02       2.591820617674e+04 
       2.967187789794e-02       2.038259754969e+04 
       2.981050747960e-02       2.561022683080e+04 
       2.994954107038e-02       2.545673845414e+04 
       3.008898907084e-02       2.530368482330e+04 
       3.022886220466e-02       2.515116237220e+04 
       3.036917153117e-02       2.499900735351e+04 
       3.050992845843e-02       2.484731476751e+04 
       3.065114475707e-02       2.469607223678e+04 
       3.079283257475e-02       2.454540549836e+04 
       3.093500445128e-02       1.921730633340e+04 
       3.107767333466e-02       2.424524731592e+04 
       3.122085259777e-02       2.409597568951e+04 
       3.136455605605e-02       2.394696370138e+04 
       3.150879798604e-02       1.909190675658e+04 
       3.165359314485e-02       2.365077480993e+04 
       3.179895679080e-02       1.938022018012e+04 
       3.194490470503e-02       2.335661939900e+04 
       3.209145321435e-02       2.321031076108e+04 
       3.223861921534e-02       2.306450671106e+04 
       3.238642019980e-02       2.291915975014e+04 
       3.253487428155e-02       2.277445885565e+04 
       3.268400022486e-02       2.263024137110e+04 
       3.283381747446e-02       2.248667639078e+04 
       3.298434618724e-02       2.234348020724e+04 
       3.313560726589e-02       2.220099073218e+04 
       3.328762239453e-02       2.205895129866e+04 
       3.344041407639e-02       2.191749471491e+04 
       3.359400567389e-02       1.747909185599e+04 
       3.374842145114e-02       2.163621767058e+04 
       3.390368661905e-02       2.149646594615e+04 
       3.405982738332e-02       2.135725618734e+04 
       3.421687099551e-02       2.121864672191e+04 
       3.437484580736e-02       1.588598734560e+04 
       3.453378132867e-02       2.094300559687e+04 
       3.469370828905e-02       2.080607056142e+04 
       3.485465870378e-02       2.066973382875e+04 
       3.501666594414e-02       2.053396985089e+04 
       3.517976481261e-02       2.039873020853e+04 
       3.534399162332e-02       2.026407018651e+04 
       3.550938428813e-02       2.013002491144e+04 
       3.567598240899e-02       1.999649060854e+04 
       3.584382737690e-02       1.986364688248e+04 
       3.601296247827e-02       1.973131410563e+04 
       3.618343300916e-02       1.959950236672e+04 
       3.635528639825e-02       1.946835048206e+04 
       3.652857233921e-02       1.933772929802e+04 
       3.670334293350e-02       1.920766592647e+04 
       3.687965284443e-02       1.725607556749e+04 
       3.705755946365e-02       1.748658164755e+04 
       3.723712309130e-02       1.620629434105e+04 
       3.741840713106e-02       1.869308134849e+04 
       3.760147830171e-02       1.856589622387e+04 
       3.778640686686e-02       1.843927282149e+04 
       3.797326688466e-02       1.831314153905e+04 
       3.816213647968e-02       1.818761009066e+04 
       3.835309813936e-02       1.806256799611e+04 
       3.854623903753e-02       1.514130301404e+04 
       3.874165138823e-02       1.445139719010e+04 
       3.893943283313e-02       1.769085232845e+04 
       3.913968686638e-02       1.756804495231e+04 
       3.934252330132e-02       1.744570661444e+04 
       3.954805878404e-02       1.513868916470e+04 
       3.975641735941e-02       1.720267499961e+04 
       3.996773109613e-02       1.708203521391e+04 
       4.018214077820e-02       1.696173817442e+04 
       4.039979667129e-02       1.409002198589e+04 
       4.062085937391e-02       1.672281328772e+04 
       4.084550076468e-02       1.660414981552e+04 
       4.107390505870e-02       1.648590147265e+04 
       4.130626998838e-02       1.636817632984e+04 
       4.154280812628e-02       1.625093306519e+04 
       4.178374837063e-02       1.613423207722e+04 
       4.202933761777e-02       1.601790592582e+04 
       4.227984264963e-02       1.590205709048e+04 
       4.253555226998e-02       1.384027902533e+04 
       4.279677972863e-02       1.220867903952e+04 
       4.306386548060e-02       1.375518452348e+04 
       4.333718033593e-02       1.544324561104e+04 
       4.361712906677e-02       1.532965477383e+04 
       4.390415455161e-02       1.521646257010e+04 
       4.419874255292e-02       1.510368626508e+04 
       4.450142724434e-02       1.499130917034e+04 
       4.481279762890e-02       1.487933897893e+04 
       4.513350502008e-02       1.396844551640e+04 
       4.546427179678e-02       1.465651235624e+04 
       4.580590169115e-02       1.454565384539e+04 
       4.615929192962e-02       1.443517141483e+04 
       4.652544762409e-02       1.432495727481e+04 
       4.690549890795e-02       1.421510103801e+04 
       4.730072143574e-02       1.410554327675e+04 
       4.771256102290e-02       1.399618542223e+04 
       4.814266340365e-02       1.388718736629e+04 
       4.859291034157e-02       1.377822256100e+04 
       4.906546365288e-02       1.193991642354e+04 
       4.956281911284e-02       1.356065236038e+04 
       5.008787272603e-02       1.345190502995e+04 
       5.064400245977e-02       1.334291289714e+04 
       5.123516925880e-02       1.323350261264e+04 
       5.186604192501e-02       1.312341408556e+04 
       5.254215111146e-02       1.301227154813e+04 
       5.327007790229e-02       1.289951180347e+04 
       5.405768150006e-02       1.278438394136e+04 
       5.491436695606e-02       1.266575484949e+04 
       5.585138487027e-02       1.216288037982e+04 
