# Matter power spectrum P(k) at redshift z=0
# for k=1.05351e-05 to 1.4771 h/Mpc,
# number of wavenumbers equal to 617
#    1:k (h/Mpc)              2:P (Mpc/h)^3        
       1.053514489394e-05       4.187052865380e+01 
       2.339242409751e-05       9.057532350621e+01 
       3.629503047957e-05       1.385271905321e+02 
       4.927755263527e-05       1.862010060511e+02 
       6.237515161233e-05       2.338735008819e+02 
       7.562387328561e-05       2.817753822963e+02 
       8.906097071727e-05       3.300537453491e+02 
       1.027252407743e-04       3.788948075495e+02 
       1.166573793078e-04       4.284637681180e+02 
       1.309003592324e-04       4.792244862060e+02 
       1.454998358498e-04       5.307764741813e+02 
       1.605045837023e-04       5.835532794641e+02 
       1.759669690694e-04       6.377592786677e+02 
       1.919434618544e-04       6.935787851340e+02 
       2.084951899667e-04       7.512186679233e+02 
       2.256885382453e-04       8.108873555203e+02 
       2.435957923382e-04       8.729446346040e+02 
       2.622958255276e-04       9.374529062248e+02 
       2.818748230057e-04       1.004773046922e+03 
       3.024270332450e-04       1.075258259811e+03 
       3.240555294860e-04       1.149775419711e+03 
       3.468729556007e-04       1.227489065252e+03 
       3.710022192982e-04       1.309932046071e+03 
       3.965770815731e-04       1.396440823068e+03 
       4.237425744647e-04       1.488079968062e+03 
       4.526551601028e-04       1.585695057836e+03 
       4.834825239652e-04       1.689058801380e+03 
       5.164028767326e-04       1.798874637126e+03 
       5.516036260770e-04       1.916789806161e+03 
       5.892792778757e-04       2.041670836323e+03 
       6.296284429178e-04       2.174520803585e+03 
       6.728498679866e-04       2.315879479564e+03 
       7.191374856912e-04       2.466909753331e+03 
       7.686745875924e-04       2.627925100450e+03 
       8.216273638776e-04       2.798331637703e+03 
       8.781382027538e-04       2.979052121075e+03 
       9.383192749814e-04       3.170654179840e+03 
       1.002247007488e-03       3.372063627019e+03 
       1.069958041310e-03       3.584358858923e+03 
       1.141447155165e-03       3.806242837276e+03 
       1.216667425060e-03       4.037627622448e+03 
       1.295532619479e-03       4.277872311055e+03 
       1.377921555859e-03       4.526324966409e+03 
       1.463683925883e-03       4.782300517657e+03 
       1.477104874446e-03       4.822134147603e+03 
       1.552646976005e-03       5.044837548737e+03 
       1.644622418128e-03       5.313228590395e+03 
       1.739413027212e-03       5.586446117114e+03 
       1.836818523373e-03       5.863901333773e+03 
       1.936640496579e-03       6.144423198186e+03 
       2.038686280331e-03       6.427585131750e+03 
       2.142771797303e-03       6.712323635529e+03 
       2.248723477830e-03       6.998142875889e+03 
       2.356379394113e-03       7.284428137516e+03 
       2.465589766478e-03       7.570632244262e+03 
       2.576216992074e-03       7.856203023221e+03 
       2.688135329185e-03       8.214172490358e+03 
       2.801230348194e-03       8.602718000648e+03 
       2.915398237411e-03       8.805914856848e+03 
       3.030545030905e-03       9.115459716245e+03 
       3.146585807543e-03       9.325810491674e+03 
       3.263443895693e-03       9.621122153032e+03 
       3.381050106662e-03       9.959380925122e+03 
       3.499342011248e-03       1.017360716756e+04 
       3.618263267457e-03       1.044199693616e+04 
       3.737763002942e-03       1.073117556090e+04 
       3.857795252637e-03       1.096424796030e+04 
       3.978318450015e-03       1.122241514604e+04 
       4.099294969152e-03       1.148520432995e+04 
       4.220690714059e-03       1.172606752170e+04 
       4.342474751419e-03       1.197856002231e+04 
       4.464618982774e-03       1.222064076830e+04 
       4.587097852338e-03       1.246274499754e+04 
       4.709888086752e-03       1.269607732236e+04 
       4.832968463411e-03       1.292925135878e+04 
       4.956319604231e-03       1.315784936839e+04 
       5.079923792022e-03       1.338276411371e+04 
       5.203764806938e-03       1.360470302246e+04 
       5.327827780708e-03       1.382174210765e+04 
       5.452099066625e-03       1.403598976012e+04 
       5.576566123489e-03       1.424543828445e+04 
       5.701217411906e-03       1.445113941949e+04 
       5.826042301531e-03       1.465570269415e+04 
       5.951030988019e-03       1.485408170045e+04 
       6.076174418564e-03       1.504883586188e+04 
       6.201464225084e-03       1.524120492236e+04 
       6.326892664170e-03       1.542884008452e+04 
       6.452452563071e-03       1.561540784791e+04 
       6.578137271034e-03       1.579604342602e+04 
       6.703940615419e-03       1.597311769470e+04 
       6.829856862075e-03       1.614798821952e+04 
       6.955880679511e-03       1.631830308300e+04 
       7.082007106470e-03       1.648533888584e+04 
       7.208231522537e-03       1.665080275614e+04 
       7.334549621476e-03       1.681119161342e+04 
       7.460957387000e-03       1.696817146746e+04 
       7.587451070741e-03       1.712200847582e+04 
       7.714027172190e-03       1.727341874540e+04 
       7.840682420411e-03       1.742086243973e+04 
       7.967413757351e-03       1.756514429393e+04 
       8.094218322600e-03       1.770765896196e+04 
       8.221093439447e-03       1.784575521499e+04 
       8.348036602120e-03       1.798077984193e+04 
       8.475045464092e-03       1.811282647827e+04 
       8.602117827354e-03       1.824238805281e+04 
       8.729251632565e-03       1.836849931147e+04 
       8.856444950006e-03       1.849164557561e+04 
       8.983695971248e-03       1.861195084731e+04 
       9.111003001494e-03       1.873029223087e+04 
       9.238364452513e-03       1.884493453848e+04 
       9.365778836132e-03       1.895671265837e+04 
       9.493244758221e-03       1.906578597302e+04 
       9.620760913147e-03       1.917246588229e+04 
       9.748326078641e-03       1.927607998395e+04 
       9.875939111053e-03       1.937704876579e+04 
       1.000359894096e-02       1.947537065785e+04 
       1.013130456910e-02       1.957170578882e+04 
       1.025905506260e-02       1.966486037950e+04 
       1.038684955149e-02       1.975545359442e+04 
       1.051468722544e-02       1.984351224825e+04 
       1.064256733078e-02       1.992908389944e+04 
       1.077048916769e-02       2.001251919566e+04 
       1.089845208759e-02       2.009321651156e+04 
       1.102645549077e-02       2.017150923905e+04 
       1.115449882409e-02       2.024742943104e+04 
       1.128258157895e-02       2.032099410513e+04 
       1.141070328933e-02       2.039271966149e+04 
       1.153886352998e-02       2.046169435463e+04 
       1.166706191473e-02       2.052842045776e+04 
       1.179529809497e-02       2.059290035079e+04 
       1.192357175818e-02       2.065519559149e+04 
       1.205188262656e-02       2.071549755982e+04 
       1.218023045579e-02       2.077343858210e+04 
       1.230861503389e-02       2.082927435889e+04 
       1.243703618007e-02       2.088299269792e+04 
       1.256549374379e-02       2.093462175426e+04 
       1.269398760379e-02       2.098419987776e+04 
       1.282251766722e-02       2.103211260503e+04 
       1.295108386887e-02       2.107768275386e+04 
       1.307968617038e-02       2.112129175194e+04 
       1.320832455957e-02       2.116293422821e+04 
       1.333699904983e-02       2.120264639216e+04 
       1.346570967951e-02       2.124046292831e+04 
       1.359445651138e-02       2.127654863252e+04 
       1.372323963213e-02       2.131062213914e+04 
       1.385205915198e-02       2.134284846349e+04 
       1.398091520416e-02       2.137327695322e+04 
       1.410980794463e-02       2.140193385866e+04 
       1.423873755172e-02       2.142879549580e+04 
       1.436770422579e-02       2.145419842806e+04 
       1.449670818899e-02       2.147761255241e+04 
       1.462574968502e-02       2.149934014787e+04 
       1.475482897891e-02       2.151939209249e+04 
       1.477104874446e-02       2.152179418734e+04 
       1.488394635684e-02       2.153778252803e+04 
       1.501310212599e-02       2.155454647136e+04 
       1.514229661441e-02       2.156969032573e+04 
       1.527153017090e-02       2.158336304621e+04 
       1.540080316495e-02       2.159534025913e+04 
       1.553011598667e-02       2.160577540682e+04 
       1.565946904678e-02       2.161467086086e+04 
       1.578886277655e-02       2.162206754926e+04 
       1.591829762787e-02       2.162796397312e+04 
       1.604777407322e-02       2.163238842559e+04 
       1.617729260577e-02       2.163558651003e+04 
       1.630685373941e-02       2.163714301304e+04 
       1.643645800886e-02       2.163728200274e+04 
       1.656610596976e-02       2.163603580777e+04 
       1.669579819881e-02       2.163340360964e+04 
       1.682553529391e-02       2.162942542519e+04 
       1.695531787430e-02       2.162411455838e+04 
       1.708514658078e-02       2.161748196320e+04 
       1.721502207585e-02       2.160966231869e+04 
       1.734494504396e-02       2.160046544533e+04 
       1.747491619173e-02       2.159000370523e+04 
       1.760493624820e-02       2.157830262936e+04 
       1.773500596506e-02       2.156537218366e+04 
       1.786512611699e-02       2.155124881608e+04 
       1.799529750189e-02       2.153593867429e+04 
       1.812552094123e-02       2.151944721831e+04 
       1.825579728037e-02       2.150202338025e+04 
       1.838612738890e-02       2.148326303553e+04 
       1.851651216100e-02       2.146338422077e+04 
       1.864695251585e-02       2.144240325998e+04 
       1.877744939796e-02       2.142034971853e+04 
       1.890800377767e-02       2.139722462387e+04 
       1.903861665148e-02       2.137305380383e+04 
       1.916928904260e-02       2.134786588248e+04 
       1.930002200133e-02       2.132165122574e+04 
       1.943081660559e-02       2.129454563172e+04 
       1.956167396143e-02       2.126635738332e+04 
       1.969259520350e-02       2.123719848822e+04 
       1.982358149564e-02       2.120709364462e+04 
       1.995463403141e-02       2.117606135419e+04 
       2.008575403469e-02       2.114409973900e+04 
       2.021694276024e-02       2.111124784612e+04 
       2.034820149436e-02       2.107749991229e+04 
       2.047953155551e-02       2.104288585281e+04 
       2.061093429497e-02       2.100761227509e+04 
       2.074241109752e-02       2.097130880034e+04 
       2.087396338215e-02       2.093418269145e+04 
       2.100559260280e-02       2.089624496492e+04 
       2.113730024908e-02       2.085750618862e+04 
       2.126908784706e-02       2.081799434735e+04 
       2.140095696009e-02       2.077770455562e+04 
       2.153290918960e-02       2.073667106850e+04 
       2.166494617594e-02       2.069489773816e+04 
       2.179706959930e-02       2.065239144165e+04 
       2.192928118058e-02       2.060927874081e+04 
       2.206158268234e-02       2.056536871114e+04 
       2.219397590975e-02       2.052078233036e+04 
       2.232646271160e-02       2.047552318057e+04 
       2.245904498133e-02       2.042960480003e+04 
       2.259172465805e-02       2.038304632665e+04 
       2.272450372765e-02       2.033585590176e+04 
       2.285738422395e-02       2.028805057536e+04 
       2.299036822983e-02       2.023964216915e+04 
       2.312345787841e-02       2.019064107844e+04 
       2.325665535432e-02       2.014124282507e+04 
       2.338996289496e-02       2.009110249396e+04 
       2.352338279179e-02       2.004041184132e+04 
       2.365691739172e-02       1.998917541531e+04 
       2.379056909846e-02       1.993740893023e+04 
       2.392434037402e-02       1.988513596941e+04 
       2.405823374014e-02       1.983235421025e+04 
       2.419225177985e-02       1.977907703022e+04 
       2.432639713906e-02       1.972532357112e+04 
       2.446067252819e-02       1.967109220829e+04 
       2.459508072385e-02       1.961641446836e+04 
       2.472962457058e-02       1.956128047595e+04 
       2.486430698268e-02       1.950581196287e+04 
       2.499913094604e-02       1.944982410368e+04 
       2.513409952005e-02       1.939343006203e+04 
       2.526921583964e-02       1.933662401268e+04 
       2.540448311727e-02       1.927943585262e+04 
       2.553990464509e-02       1.922186429437e+04 
       2.567548379711e-02       1.916392132429e+04 
       2.581122403147e-02       1.910561579312e+04 
       2.594712889281e-02       1.904696742878e+04 
       2.608320201465e-02       1.898796953420e+04 
       2.621944712193e-02       1.892865142697e+04 
       2.635586803358e-02       1.886918347032e+04 
       2.649246866526e-02       1.880924086239e+04 
       2.662925303205e-02       1.874898853708e+04 
       2.676622525143e-02       1.868845066465e+04 
       2.690338954618e-02       1.862762776803e+04 
       2.704075024752e-02       1.856653010558e+04 
       2.717831179828e-02       1.850517251991e+04 
       2.731607875626e-02       1.844356144890e+04 
       2.745405579759e-02       1.838169485389e+04 
       2.759224772040e-02       1.831959791510e+04 
       2.773065944842e-02       1.825726908194e+04 
       2.786929603489e-02       1.819471775111e+04 
       2.800816266649e-02       1.813195693251e+04 
       2.814726466752e-02       1.806907477235e+04 
       2.828660750414e-02       1.800591822666e+04 
       2.842619678888e-02       1.794256602835e+04 
       2.856603828521e-02       1.787903471526e+04 
       2.870613791242e-02       1.781532963566e+04 
       2.884650175056e-02       1.775146460499e+04 
       2.898713604567e-02       1.768743051837e+04 
       2.912804721518e-02       1.762325510681e+04 
       2.926924185354e-02       1.755893011437e+04 
       2.941072673809e-02       1.749446813764e+04 
       2.955250883511e-02       1.742988221927e+04 
       2.969459530623e-02       1.736516415859e+04 
       2.983699351500e-02       1.730033965860e+04 
       2.997971103378e-02       1.723556517385e+04 
       3.012275565098e-02       1.717052538578e+04 
       3.026613537847e-02       1.710538602955e+04 
       3.040985845946e-02       1.704016060853e+04 
       3.055393337663e-02       1.697484034439e+04 
       3.069836886066e-02       1.690944669647e+04 
       3.084317389910e-02       1.684397711640e+04 
       3.098835774566e-02       1.677843395637e+04 
       3.113392992995e-02       1.671283508971e+04 
       3.127990026760e-02       1.664717065521e+04 
       3.142627887090e-02       1.658145983116e+04 
       3.157307615990e-02       1.651569656780e+04 
       3.172030287401e-02       1.644988743815e+04 
       3.186797008425e-02       1.638412962944e+04 
       3.201608920595e-02       1.631825016695e+04 
       3.216467201214e-02       1.625234384964e+04 
       3.231373064761e-02       1.618641405283e+04 
       3.246327764357e-02       1.612046502187e+04 
       3.261332593313e-02       1.605449306273e+04 
       3.276388886751e-02       1.598850965529e+04 
       3.291498023310e-02       1.592252180920e+04 
       3.306661426931e-02       1.585652113195e+04 
       3.321880568747e-02       1.579052639783e+04 
       3.337156969061e-02       1.572452549203e+04 
       3.352492199434e-02       1.565853004907e+04 
       3.367887884877e-02       1.559254765412e+04 
       3.383345706175e-02       1.552656289437e+04 
       3.398867402321e-02       1.546076513681e+04 
       3.414454773094e-02       1.539482314291e+04 
       3.430109681778e-02       1.532890240888e+04 
       3.445834058034e-02       1.526299631524e+04 
       3.461629900932e-02       1.519711693804e+04 
       3.477499282165e-02       1.513126185322e+04 
       3.493444349436e-02       1.506543351746e+04 
       3.509467330064e-02       1.499963696393e+04 
       3.525570534785e-02       1.493386932108e+04 
       3.541756361791e-02       1.486813242981e+04 
       3.558027301019e-02       1.480243269886e+04 
       3.574385938693e-02       1.473675977506e+04 
       3.590834962159e-02       1.467112892120e+04 
       3.607377165022e-02       1.460553220048e+04 
       3.624015452608e-02       1.454004936945e+04 
       3.640752847786e-02       1.447452383456e+04 
       3.657592497167e-02       1.440903977259e+04 
       3.674537677714e-02       1.434359477388e+04 
       3.691591803800e-02       1.427818049574e+04 
       3.708758434744e-02       1.421281015922e+04 
       3.726041282870e-02       1.414747314806e+04 
       3.743444222125e-02       1.408217251396e+04 
       3.760971297315e-02       1.401690959941e+04 
       3.778626733997e-02       1.395167334707e+04 
       3.796414949101e-02       1.388647750431e+04 
       3.814340562333e-02       1.382131024612e+04 
       3.832408408427e-02       1.375616757584e+04 
       3.850623550346e-02       1.369106051738e+04 
       3.868991293482e-02       1.362611942155e+04 
       3.887517200987e-02       1.356106132585e+04 
       3.906207110310e-02       1.349601918924e+04 
       3.925067151081e-02       1.343100084947e+04 
       3.944103764452e-02       1.336599027003e+04 
       3.963323724060e-02       1.330099208009e+04 
       3.982734158754e-02       1.323599993558e+04 
       4.002342577292e-02       1.317100826068e+04 
       4.022156895183e-02       1.310602050740e+04 
       4.042185463931e-02       1.304101892941e+04 
       4.062437102909e-02       1.297600914444e+04 
       4.082921134184e-02       1.291098449994e+04 
       4.103647420589e-02       1.284593518944e+04 
       4.124626407429e-02       1.278084515587e+04 
       4.145869168235e-02       1.271579849532e+04 
       4.167387455040e-02       1.265063349347e+04 
       4.189193753714e-02       1.258541475988e+04 
       4.211301344982e-02       1.252014026256e+04 
       4.233724371819e-02       1.245478919882e+04 
       4.256477914034e-02       1.238936515959e+04 
       4.279578070973e-02       1.232384251949e+04 
       4.303042053395e-02       1.225822712317e+04 
       4.326888285764e-02       1.219249614334e+04 
       4.351136520382e-02       1.212663906948e+04 
       4.375807965004e-02       1.206064075108e+04 
       4.400925425875e-02       1.199449478381e+04 
       4.426513468433e-02       1.192830812645e+04 
       4.452598598303e-02       1.186181035330e+04 
       4.479209465689e-02       1.179510309906e+04 
       4.506377096796e-02       1.172817841756e+04 
       4.534135156609e-02       1.166100286937e+04 
       4.562520248133e-02       1.159356797136e+04 
       4.591572254207e-02       1.152583400471e+04 
       4.621334729169e-02       1.145778980671e+04 
       4.651855349133e-02       1.138939885219e+04 
       4.683186431416e-02       1.132062198634e+04 
       4.715385535883e-02       1.125144109535e+04 
       4.748516163696e-02       1.118187112655e+04 
       4.782648572408e-02       1.111174598127e+04 
       4.817860730545e-02       1.104108205876e+04 
       4.854239440235e-02       1.096982508993e+04 
       4.891881663122e-02       1.089792623263e+04 
       4.930896093352e-02       1.082531656958e+04 
       4.971405032194e-02       1.075191625499e+04 
       5.013546632598e-02       1.067765399719e+04 
       5.057477599489e-02       1.060243638710e+04 
       5.103376453881e-02       1.052628412246e+04 
       5.151447497300e-02       1.044880944242e+04 
       5.201925649021e-02       1.037000569083e+04 
       5.255082373904e-02       1.028969122514e+04 
       5.311232974716e-02       1.020766988162e+04 
       5.370745590485e-02       1.012369502267e+04 
       5.434052320010e-02       1.003753469562e+04 
       5.501662970375e-02       9.948693703958e+03 
       5.574181995588e-02       9.856777880346e+03 
       5.652329198392e-02       9.761211774212e+03 
       5.736964630554e-02       9.661260775436e+03 
       5.829117668063e-02       9.556083668143e+03 
       5.930019127111e-02       9.444178272329e+03 
