# Matter power spectrum P(k) at redshift z=3
# for k=1.05351e-05 to 1.4771 h/Mpc,
# number of wavenumbers equal to 617
#    1:k (h/Mpc)              2:P (Mpc/h)^3        
       1.053514489394e-05       4.655653144211e+00 
       2.339242409751e-05       1.007125165408e+01 
       3.629503047957e-05       1.540320222081e+01 
       4.927755263527e-05       2.070434633722e+01 
       6.237515161233e-05       2.600549523992e+01 
       7.562387328561e-05       3.133016160371e+01 
       8.906097071727e-05       3.669872119006e+01 
       1.027252407743e-04       4.213013026077e+01 
       1.166573793078e-04       4.764281443603e+01 
       1.309003592324e-04       5.325521390079e+01 
       1.454998358498e-04       5.898616789596e+01 
       1.605045837023e-04       6.485521893504e+01 
       1.759669690694e-04       7.088287631110e+01 
       1.919434618544e-04       7.709086004512e+01 
       2.084951899667e-04       8.350233720271e+01 
       2.256885382453e-04       9.014215733688e+01 
       2.435957923382e-04       9.703709047505e+01 
       2.622958255276e-04       1.042160684855e+02 
       2.818748230057e-04       1.117104282457e+02 
       3.024270332450e-04       1.195541524245e+02 
       3.240555294860e-04       1.277841006150e+02 
       3.468729556007e-04       1.364402198076e+02 
       3.710022192982e-04       1.455657186255e+02 
       3.965770815731e-04       1.552071842766e+02 
       4.237425744647e-04       1.654146148807e+02 
       4.526551601028e-04       1.762413329854e+02 
       4.834825239652e-04       1.877437393099e+02 
       5.164028767326e-04       1.999808601454e+02 
       5.516036260770e-04       2.130136390564e+02 
       5.892792778757e-04       2.269039258729e+02 
       6.296284429178e-04       2.417131261942e+02 
       6.728498679866e-04       2.575004955336e+02 
       7.191374856912e-04       2.743210959536e+02 
       7.686745875924e-04       2.922234788009e+02 
       8.216273638776e-04       3.112472129108e+02 
       8.781382027538e-04       3.314157985933e+02 
       9.383192749814e-04       3.527598921634e+02 
       1.002247007488e-03       3.752538806582e+02 
       1.069958041310e-03       3.988878465043e+02 
       1.141447155165e-03       4.236238134139e+02 
       1.216667425060e-03       4.494366150411e+02 
       1.295532619479e-03       4.762502611468e+02 
       1.377921555859e-03       5.039866729175e+02 
       1.463683925883e-03       5.325396251181e+02 
       1.477104874446e-03       5.369841655590e+02 
       1.552646976005e-03       5.618515749857e+02 
       1.644622418128e-03       5.918255157373e+02 
       1.739413027212e-03       6.223591679012e+02 
       1.836818523373e-03       6.533553331880e+02 
       1.936640496579e-03       6.847022567537e+02 
       2.038686280331e-03       7.163096530078e+02 
       2.142771797303e-03       7.481257711840e+02 
       2.248723477830e-03       7.800799376218e+02 
       2.356379394113e-03       8.120894238437e+02 
       2.465589766478e-03       8.440933021107e+02 
       2.576216992074e-03       8.760409458328e+02 
       2.688135329185e-03       9.078749432816e+02 
       2.801230348194e-03       9.395541742385e+02 
       2.915398237411e-03       9.710372163043e+02 
       3.030545030905e-03       1.002283173511e+03 
       3.146585807543e-03       1.033287768581e+03 
       3.263443895693e-03       1.064005817888e+03 
       3.381050106662e-03       1.094417590185e+03 
       3.499342011248e-03       1.124499207581e+03 
       3.618263267457e-03       1.154235954896e+03 
       3.737763002942e-03       1.183618084400e+03 
       3.857795252637e-03       1.212635233355e+03 
       3.978318450015e-03       1.241282481876e+03 
       4.099294969152e-03       1.269536906973e+03 
       4.220690714059e-03       1.297407027598e+03 
       4.342474751419e-03       1.324868358582e+03 
       4.464618982774e-03       1.351924030907e+03 
       4.587097852338e-03       1.378578274662e+03 
       4.709888086752e-03       1.404822289372e+03 
       4.832968463411e-03       1.430656380810e+03 
       4.956319604231e-03       1.456032171976e+03 
       5.079923792022e-03       1.480385160220e+03 
       5.203764806938e-03       1.507126140777e+03 
       5.327827780708e-03       1.530075738618e+03 
       5.452099066625e-03       1.554814528404e+03 
       5.576566123489e-03       1.576804655770e+03 
       5.701217411906e-03       1.598338685902e+03 
       5.826042301531e-03       1.624553034006e+03 
       5.951030988019e-03       1.645319746617e+03 
       6.076174418564e-03       1.665735897010e+03 
       6.201464225084e-03       1.688077273047e+03 
       6.326892664170e-03       1.707844726515e+03 
       6.452452563071e-03       1.731809314885e+03 
       6.578137271034e-03       1.750923861914e+03 
       6.703940615419e-03       1.769549190129e+03 
       6.829856862075e-03       1.790085476973e+03 
       6.955880679511e-03       1.808185212165e+03 
       7.082007106470e-03       1.826148577029e+03 
       7.208231522537e-03       1.846917637353e+03 
       7.334549621476e-03       1.864227049072e+03 
       7.460957387000e-03       1.880999175838e+03 
       7.587451070741e-03       1.897635900324e+03 
       7.714027172190e-03       1.915296874155e+03 
       7.840682420411e-03       1.931293184934e+03 
       7.967413757351e-03       1.946958185230e+03 
       8.094218322600e-03       1.964568104405e+03 
       8.221093439447e-03       1.979614042483e+03 
       8.348036602120e-03       1.994320371897e+03 
       8.475045464092e-03       2.008786212795e+03 
       8.602117827354e-03       2.023754516143e+03 
       8.729251632565e-03       2.037607428995e+03 
       8.856444950006e-03       2.051091473508e+03 
       8.983695971248e-03       2.064350919848e+03 
       9.111003001494e-03       2.078720863049e+03 
       9.238364452513e-03       2.091396479784e+03 
       9.365778836132e-03       2.103656999002e+03 
       9.493244758221e-03       2.115717352743e+03 
       9.620760913147e-03       2.128077394735e+03 
       9.748326078641e-03       2.139511035695e+03 
       9.875939111053e-03       2.150699742782e+03 
       1.000359894096e-02       2.161604223070e+03 
       1.013130456910e-02       2.173175685130e+03 
       1.025905506260e-02       2.183534571603e+03 
       1.038684955149e-02       2.193596301480e+03 
       1.051468722544e-02       2.203366998354e+03 
       1.064256733078e-02       2.212867291512e+03 
       1.077048916769e-02       2.222550953212e+03 
       1.089845208759e-02       2.231543453084e+03 
       1.102645549077e-02       2.240268357943e+03 
       1.115449882409e-02       2.248739122200e+03 
       1.128258157895e-02       2.256953731508e+03 
       1.141070328933e-02       2.265541143659e+03 
       1.153886352998e-02       2.273254389351e+03 
       1.166706191473e-02       2.280740770691e+03 
       1.179529809497e-02       2.287961139695e+03 
       1.192357175818e-02       2.294941272369e+03 
       1.205188262656e-02       2.301944707059e+03 
       1.218023045579e-02       2.308455928663e+03 
       1.230861503389e-02       2.314732135512e+03 
       1.243703618007e-02       2.320778754384e+03 
       1.256549374379e-02       2.326591954667e+03 
       1.269398760379e-02       2.332181390581e+03 
       1.282251766722e-02       2.337936501513e+03 
       1.295108386887e-02       2.343088004128e+03 
       1.307968617038e-02       2.348022624317e+03 
       1.320832455957e-02       2.352738537557e+03 
       1.333699904983e-02       2.357238183930e+03 
       1.346570967951e-02       2.361537315686e+03 
       1.359445651138e-02       2.365777512182e+03 
       1.372323963213e-02       2.369663386499e+03 
       1.385205915198e-02       2.373341341082e+03 
       1.398091520416e-02       2.376813669703e+03 
       1.410980794463e-02       2.380109503428e+03 
       1.423873755172e-02       2.383191395763e+03 
       1.436770422579e-02       2.386315402324e+03 
       1.449670818899e-02       2.389011998294e+03 
       1.462574968502e-02       2.391528472590e+03 
       1.475482897891e-02       2.393864814431e+03 
       1.477104874446e-02       2.394145406867e+03 
       1.488394635684e-02       2.396011824735e+03 
       1.501310212599e-02       2.397983958674e+03 
       1.514229661441e-02       2.399770164373e+03 
       1.527153017090e-02       2.401469457445e+03 
       1.540080316495e-02       2.402902248947e+03 
       1.553011598667e-02       2.404173870830e+03 
       1.565946904678e-02       2.405269044264e+03 
       1.578886277655e-02       2.406204177089e+03 
       1.591829762787e-02       2.406967502700e+03 
       1.604777407322e-02       2.407567587075e+03 
       1.617729260577e-02       2.408142279633e+03 
       1.630685373941e-02       2.408428237493e+03 
       1.643645800886e-02       2.408552177705e+03 
       1.656610596976e-02       2.408527456595e+03 
       1.669579819881e-02       2.408341065135e+03 
       1.682553529391e-02       2.408008381278e+03 
       1.695531787430e-02       2.407533160088e+03 
       1.708514658078e-02       2.406905982665e+03 
       1.721502207585e-02       2.406184796728e+03 
       1.734494504396e-02       2.405274984668e+03 
       1.747491619173e-02       2.404223775941e+03 
       1.760493624820e-02       2.403033573651e+03 
       1.773500596506e-02       2.401703556696e+03 
       1.786512611699e-02       2.400246718293e+03 
       1.799529750189e-02       2.398654191751e+03 
       1.812552094123e-02       2.396926853741e+03 
       1.825579728037e-02       2.395155791761e+03 
       1.838612738890e-02       2.393178371735e+03 
       1.851651216100e-02       2.391075566121e+03 
       1.864695251585e-02       2.388848254048e+03 
       1.877744939796e-02       2.386504405774e+03 
       1.890800377767e-02       2.384038303643e+03 
       1.903861665148e-02       2.381454563443e+03 
       1.916928904260e-02       2.378759299111e+03 
       1.930002200133e-02       2.375944867823e+03 
       1.943081660559e-02       2.373053951462e+03 
       1.956167396143e-02       2.370022331451e+03 
       1.969259520350e-02       2.366880119228e+03 
       1.982358149564e-02       2.363632666665e+03 
       1.995463403141e-02       2.360283167296e+03 
       2.008575403469e-02       2.356826096108e+03 
       2.021694276024e-02       2.353272279711e+03 
       2.034820149436e-02       2.349615660132e+03 
       2.047953155551e-02       2.345864230629e+03 
       2.061093429497e-02       2.342059822623e+03 
       2.074241109752e-02       2.338116650186e+03 
       2.087396338215e-02       2.334080303109e+03 
       2.100559260280e-02       2.329954924762e+03 
       2.113730024908e-02       2.325738132774e+03 
       2.126908784706e-02       2.321436431684e+03 
       2.140095696009e-02       2.317045366531e+03 
       2.153290918960e-02       2.312572664048e+03 
       2.166494617594e-02       2.308016922136e+03 
       2.179706959930e-02       2.303377037941e+03 
       2.192928118058e-02       2.298676588839e+03 
       2.206158268234e-02       2.293879716656e+03 
       2.219397590975e-02       2.289008055835e+03 
       2.232646271160e-02       2.284060532424e+03 
       2.245904498133e-02       2.279039166055e+03 
       2.259172465805e-02       2.273945815091e+03 
       2.272450372765e-02       2.268781656813e+03 
       2.285738422395e-02       2.263548602562e+03 
       2.299036822983e-02       2.258248170345e+03 
       2.312345787841e-02       2.252881138302e+03 
       2.325665535432e-02       2.247472408954e+03 
       2.338996289496e-02       2.241976979772e+03 
       2.352338279179e-02       2.236419386608e+03 
       2.365691739172e-02       2.230800536959e+03 
       2.379056909846e-02       2.225122450449e+03 
       2.392434037402e-02       2.219386543151e+03 
       2.405823374014e-02       2.213593445678e+03 
       2.419225177985e-02       2.207745563077e+03 
       2.432639713906e-02       2.201843872402e+03 
       2.446067252819e-02       2.195887920289e+03 
       2.459508072385e-02       2.189881884463e+03 
       2.472962457058e-02       2.183824084166e+03 
       2.486430698268e-02       2.177727143289e+03 
       2.499913094604e-02       2.171572772481e+03 
       2.513409952005e-02       2.165372832537e+03 
       2.526921583964e-02       2.159126017155e+03 
       2.540448311727e-02       2.152836234431e+03 
       2.553990464509e-02       2.146503051523e+03 
       2.567548379711e-02       2.140127926043e+03 
       2.581122403147e-02       2.133711643825e+03 
       2.594712889281e-02       2.127256580367e+03 
       2.608320201465e-02       2.120761865100e+03 
       2.621944712193e-02       2.114230872086e+03 
       2.635586803358e-02       2.107675153326e+03 
       2.649246866526e-02       2.101072808552e+03 
       2.662925303205e-02       2.094435321308e+03 
       2.676622525143e-02       2.087765440962e+03 
       2.690338954618e-02       2.081063246237e+03 
       2.704075024752e-02       2.074329896014e+03 
       2.717831179828e-02       2.067567020275e+03 
       2.731607875626e-02       2.060775291610e+03 
       2.745405579759e-02       2.053954691281e+03 
       2.759224772040e-02       2.047107788775e+03 
       2.773065944842e-02       2.040234667606e+03 
       2.786929603489e-02       2.033336343742e+03 
       2.800816266649e-02       2.026413978592e+03 
       2.814726466752e-02       2.019472596088e+03 
       2.828660750414e-02       2.012504785758e+03 
       2.842619678888e-02       2.005514803278e+03 
       2.856603828521e-02       1.998504691475e+03 
       2.870613791242e-02       1.991474659670e+03 
       2.884650175056e-02       1.984425843153e+03 
       2.898713604567e-02       1.977358355729e+03 
       2.912804721518e-02       1.970274185207e+03 
       2.926924185354e-02       1.963173117213e+03 
       2.941072673809e-02       1.956056312591e+03 
       2.955250883511e-02       1.948924611664e+03 
       2.969459530623e-02       1.941778502064e+03 
       2.983699351500e-02       1.934619456732e+03 
       2.997971103378e-02       1.927453235773e+03 
       3.012275565098e-02       1.920269174063e+03 
       3.026613537847e-02       1.913073576939e+03 
       3.040985845946e-02       1.905867549781e+03 
       3.055393337663e-02       1.898651081070e+03 
       3.069836886066e-02       1.891425585482e+03 
       3.084317389910e-02       1.884191389827e+03 
       3.098835774566e-02       1.876948755948e+03 
       3.113392992995e-02       1.869699007541e+03 
       3.127990026760e-02       1.862442009560e+03 
       3.142627887090e-02       1.855178986663e+03 
       3.157307615990e-02       1.847909935789e+03 
       3.172030287401e-02       1.840635643063e+03 
       3.186797008425e-02       1.833359175008e+03 
       3.201608920595e-02       1.826076096700e+03 
       3.216467201214e-02       1.818789292538e+03 
       3.231373064761e-02       1.811499599944e+03 
       3.246327764357e-02       1.804207297132e+03 
       3.261332593313e-02       1.796912555957e+03 
       3.276388886751e-02       1.789616090610e+03 
       3.291498023310e-02       1.782318455939e+03 
       3.306661426931e-02       1.775019669064e+03 
       3.321880568747e-02       1.767720635342e+03 
       3.337156969061e-02       1.760421224872e+03 
       3.352492199434e-02       1.753122172681e+03 
       3.367887884877e-02       1.745823781919e+03 
       3.383345706175e-02       1.738526058510e+03 
       3.398867402321e-02       1.731232755729e+03 
       3.414454773094e-02       1.723937974623e+03 
       3.430109681778e-02       1.716645104840e+03 
       3.445834058034e-02       1.709354153538e+03 
       3.461629900932e-02       1.702065665157e+03 
       3.477499282165e-02       1.694779828183e+03 
       3.493444349436e-02       1.687496691312e+03 
       3.509467330064e-02       1.680216709062e+03 
       3.525570534785e-02       1.672939885156e+03 
       3.541756361791e-02       1.665666430901e+03 
       3.558027301019e-02       1.658396618657e+03 
       3.574385938693e-02       1.651130408536e+03 
       3.590834962159e-02       1.643868053776e+03 
       3.607377165022e-02       1.636609555190e+03 
       3.624015452608e-02       1.629356005501e+03 
       3.640752847786e-02       1.622105472745e+03 
       3.657592497167e-02       1.614859109100e+03 
       3.674537677714e-02       1.607616859287e+03 
       3.691591803800e-02       1.600378646382e+03 
       3.708758434744e-02       1.593144673160e+03 
       3.726041282870e-02       1.585914719125e+03 
       3.743444222125e-02       1.578688788352e+03 
       3.760971297315e-02       1.571466831959e+03 
       3.778626733997e-02       1.564248602592e+03 
       3.796414949101e-02       1.557034194681e+03 
       3.814340562333e-02       1.549823289303e+03 
       3.832408408427e-02       1.542615726196e+03 
       3.850623550346e-02       1.535411383487e+03 
       3.868991293482e-02       1.528211307613e+03 
       3.887517200987e-02       1.521012622945e+03 
       3.906207110310e-02       1.513816356360e+03 
       3.925067151081e-02       1.506622264836e+03 
       3.944103764452e-02       1.499429907705e+03 
       3.963323724060e-02       1.492238972827e+03 
       3.982734158754e-02       1.485048990832e+03 
       4.002342577292e-02       1.477859552237e+03 
       4.022156895183e-02       1.470670250940e+03 
       4.042185463931e-02       1.463480490043e+03 
       4.062437102909e-02       1.456289751904e+03 
       4.082921134184e-02       1.449097443301e+03 
       4.103647420589e-02       1.441902927748e+03 
       4.124626407429e-02       1.434705475092e+03 
       4.145869168235e-02       1.427504874955e+03 
       4.167387455040e-02       1.420299430797e+03 
       4.189193753714e-02       1.413088743045e+03 
       4.211301344982e-02       1.405871952473e+03 
       4.233724371819e-02       1.398648062170e+03 
       4.256477914034e-02       1.391416102386e+03 
       4.279578070973e-02       1.384174883276e+03 
       4.303042053395e-02       1.376923363739e+03 
       4.326888285764e-02       1.369660227696e+03 
       4.351136520382e-02       1.362384129437e+03 
       4.375807965004e-02       1.355093660925e+03 
       4.400925425875e-02       1.347787277970e+03 
       4.426513468433e-02       1.340463822690e+03 
       4.452598598303e-02       1.333120545441e+03 
       4.479209465689e-02       1.325756008130e+03 
       4.506377096796e-02       1.318368215809e+03 
       4.534135156609e-02       1.310954869326e+03 
       4.562520248133e-02       1.303513646375e+03 
       4.591572254207e-02       1.296041933293e+03 
       4.621334729169e-02       1.288536962675e+03 
       4.651855349133e-02       1.280995601612e+03 
       4.683186431416e-02       1.273414577465e+03 
       4.715385535883e-02       1.265790237297e+03 
       4.748516163696e-02       1.258118749831e+03 
       4.782648572408e-02       1.250395372482e+03 
       4.817860730545e-02       1.242615359083e+03 
       4.854239440235e-02       1.234773297244e+03 
       4.891881663122e-02       1.226863197023e+03 
       4.930896093352e-02       1.218878262830e+03 
       4.971405032194e-02       1.210810889880e+03 
       5.013546632598e-02       1.202652429881e+03 
       5.057477599489e-02       1.194393036404e+03 
       5.103376453881e-02       1.186021663174e+03 
       5.151447497300e-02       1.177524603810e+03 
       5.201925649021e-02       1.168886812115e+03 
       5.255082373904e-02       1.160090177279e+03 
       5.311232974716e-02       1.151113111171e+03 
       5.370745590485e-02       1.141929613349e+03 
       5.434052320010e-02       1.132508090577e+03 
       5.501662970375e-02       1.122809237545e+03 
       5.574181995588e-02       1.112784152143e+03 
       5.652329198392e-02       1.102370760549e+03 
       5.736964630554e-02       1.091489145408e+03 
       5.829117668063e-02       1.080035349391e+03 
       5.930019127111e-02       1.067871611193e+03 
