# Matter power spectrum P(k) at redshift z=3
# for k=1.05351e-05 to 1.4771 h/Mpc,
# number of wavenumbers equal to 617
#    1:k (h/Mpc)              2:P (Mpc/h)^3        
       1.053514489394e-05       4.674535719207e+00 
       2.339242409751e-05       1.011209762121e+01 
       3.629503047957e-05       1.546566920058e+01 
       4.927755263527e-05       2.078830454491e+01 
       6.237515161233e-05       2.611093804121e+01 
       7.562387328561e-05       3.145717576656e+01 
       8.906097071727e-05       3.684747395959e+01 
       1.027252407743e-04       4.230086333762e+01 
       1.166573793078e-04       4.783584148881e+01 
       1.309003592324e-04       5.347092020694e+01 
       1.454998358498e-04       5.922501144373e+01 
       1.605045837023e-04       6.511773264140e+01 
       1.759669690694e-04       7.116967116599e+01 
       1.919434618544e-04       7.740262907176e+01 
       2.084951899667e-04       8.383986016455e+01 
       2.256885382453e-04       9.050630613966e+01 
       2.435957923382e-04       9.742883521444e+01 
       2.622958255276e-04       1.046364840798e+02 
       2.818748230057e-04       1.121607015691e+02 
       3.024270332450e-04       1.200355898169e+02 
       3.240555294860e-04       1.282981355899e+02 
       3.468729556007e-04       1.369884207035e+02 
       3.710022192982e-04       1.461497958460e+02 
       3.965770815731e-04       1.558289966384e+02 
       4.237425744647e-04       1.660761744347e+02 
       4.526551601028e-04       1.769448074880e+02 
       4.834825239652e-04       1.884914513166e+02 
       5.164028767326e-04       2.007752814771e+02 
       5.516036260770e-04       2.138573791809e+02 
       5.892792778757e-04       2.277997125828e+02 
       6.296284429178e-04       2.426637769011e+02 
       6.728498679866e-04       2.585088776083e+02 
       7.191374856912e-04       2.753900747247e+02 
       7.686745875924e-04       2.933558533150e+02 
       8.216273638776e-04       3.124456384890e+02 
       8.781382027538e-04       3.326840437750e+02 
       9.383192749814e-04       3.541606243533e+02 
       1.002247007488e-03       3.767250626394e+02 
       1.069958041310e-03       4.004900958001e+02 
       1.141447155165e-03       4.253478157892e+02 
       1.216667425060e-03       4.512270652384e+02 
       1.295532619479e-03       4.781452157089e+02 
       1.377921555859e-03       5.059668416415e+02 
       1.463683925883e-03       5.346219962857e+02 
       1.477104874446e-03       5.390758926632e+02 
       1.552646976005e-03       5.640007078548e+02 
       1.644622418128e-03       5.940767372074e+02 
       1.739413027212e-03       6.246586052313e+02 
       1.836818523373e-03       6.557051129552e+02 
       1.936640496579e-03       6.871097105177e+02 
       2.038686280331e-03       7.188103173638e+02 
       2.142771797303e-03       7.507142319861e+02 
       2.248723477830e-03       7.827217470390e+02 
       2.356379394113e-03       8.148032910867e+02 
       2.465589766478e-03       8.468300227661e+02 
       2.576216992074e-03       8.788063904219e+02 
       2.688135329185e-03       9.106715482005e+02 
       2.801230348194e-03       9.423744437901e+02 
       2.915398237411e-03       9.738848056757e+02 
       3.030545030905e-03       1.005158627016e+03 
       3.146585807543e-03       1.036166569186e+03 
       3.263443895693e-03       1.066890164141e+03 
       3.381050106662e-03       1.097307069413e+03 
       3.499342011248e-03       1.127396688644e+03 
       3.618263267457e-03       1.157139080081e+03 
       3.737763002942e-03       1.186518179643e+03 
       3.857795252637e-03       1.215529835248e+03 
       3.978318450015e-03       1.244160245269e+03 
       4.099294969152e-03       1.272402040971e+03 
       4.220690714059e-03       1.300238030024e+03 
       4.342474751419e-03       1.327685148950e+03 
       4.464618982774e-03       1.354726926947e+03 
       4.587097852338e-03       1.381351448448e+03 
       4.709888086752e-03       1.407564885560e+03 
       4.832968463411e-03       1.433285821289e+03 
       4.956319604231e-03       1.453315465147e+03 
       5.079923792022e-03       1.483828828231e+03 
       5.203764806938e-03       1.497795891494e+03 
       5.327827780708e-03       1.526185552173e+03 
       5.452099066625e-03       1.547820942280e+03 
       5.576566123489e-03       1.573996062396e+03 
       5.701217411906e-03       1.599304778156e+03 
       5.826042301531e-03       1.616267104013e+03 
       5.951030988019e-03       1.640069968236e+03 
       6.076174418564e-03       1.663181537463e+03 
       6.201464225084e-03       1.683323237371e+03 
       6.326892664170e-03       1.705166213700e+03 
       6.452452563071e-03       1.723139929200e+03 
       6.578137271034e-03       1.743935596446e+03 
       6.703940615419e-03       1.764330768626e+03 
       6.829856862075e-03       1.783017076629e+03 
       6.955880679511e-03       1.802411698044e+03 
       7.082007106470e-03       1.821280555217e+03 
       7.208231522537e-03       1.838422946151e+03 
       7.334549621476e-03       1.856468256620e+03 
       7.460957387000e-03       1.874196802053e+03 
       7.587451070741e-03       1.891465687153e+03 
       7.714027172190e-03       1.907915582911e+03 
       7.840682420411e-03       1.924428587145e+03 
       7.967413757351e-03       1.940576777535e+03 
       8.094218322600e-03       1.955797191057e+03 
       8.221093439447e-03       1.971226347644e+03 
       8.348036602120e-03       1.986309904950e+03 
       8.475045464092e-03       2.001035248170e+03 
       8.602117827354e-03       2.015262721065e+03 
       8.729251632565e-03       2.029314216130e+03 
       8.856444950006e-03       2.043047982698e+03 
       8.983695971248e-03       2.056443286212e+03 
       9.111003001494e-03       2.069303740933e+03 
       9.238364452513e-03       2.082060539362e+03 
       9.365778836132e-03       2.094520895187e+03 
       9.493244758221e-03       2.106660943186e+03 
       9.620760913147e-03       2.118426508938e+03 
       9.748326078641e-03       2.129966689432e+03 
       9.875939111053e-03       2.141205157770e+03 
       1.000359894096e-02       2.152150899686e+03 
       1.013130456910e-02       2.162720752741e+03 
       1.025905506260e-02       2.173089087324e+03 
       1.038684955149e-02       2.183176714926e+03 
       1.051468722544e-02       2.192986243990e+03 
       1.064256733078e-02       2.202519836419e+03 
       1.077048916769e-02       2.211749925892e+03 
       1.089845208759e-02       2.220739981467e+03 
       1.102645549077e-02       2.229464609814e+03 
       1.115449882409e-02       2.237926267401e+03 
       1.128258157895e-02       2.246128145502e+03 
       1.141070328933e-02       2.254042010483e+03 
       1.153886352998e-02       2.261734449969e+03 
       1.166706191473e-02       2.269175831779e+03 
       1.179529809497e-02       2.276371051577e+03 
       1.192357175818e-02       2.283322168521e+03 
       1.205188262656e-02       2.290022530148e+03 
       1.218023045579e-02       2.296494251933e+03 
       1.230861503389e-02       2.302731010040e+03 
       1.243703618007e-02       2.308735497625e+03 
       1.256549374379e-02       2.314510737487e+03 
       1.269398760379e-02       2.320059486778e+03 
       1.282251766722e-02       2.325374944183e+03 
       1.295108386887e-02       2.330479518437e+03 
       1.307968617038e-02       2.335366163257e+03 
       1.320832455957e-02       2.340037707684e+03 
       1.333699904983e-02       2.344496841588e+03 
       1.346570967951e-02       2.348745825046e+03 
       1.359445651138e-02       2.352785017252e+03 
       1.372323963213e-02       2.356621881256e+03 
       1.385205915198e-02       2.360256495180e+03 
       1.398091520416e-02       2.363691417795e+03 
       1.410980794463e-02       2.366928683166e+03 
       1.423873755172e-02       2.369971522729e+03 
       1.436770422579e-02       2.372820125850e+03 
       1.449670818899e-02       2.375481072368e+03 
       1.462574968502e-02       2.377954339018e+03 
       1.475482897891e-02       2.380242197067e+03 
       1.477104874446e-02       2.380516675171e+03 
       1.488394635684e-02       2.382347243507e+03 
       1.501310212599e-02       2.384271986416e+03 
       1.514229661441e-02       2.386018573493e+03 
       1.527153017090e-02       2.387589042853e+03 
       1.540080316495e-02       2.388986026316e+03 
       1.553011598667e-02       2.390211352440e+03 
       1.565946904678e-02       2.391267496451e+03 
       1.578886277655e-02       2.392156663347e+03 
       1.591829762787e-02       2.392880987588e+03 
       1.604777407322e-02       2.393442626708e+03 
       1.617729260577e-02       2.393844738830e+03 
       1.630685373941e-02       2.394087696355e+03 
       1.643645800886e-02       2.394174467697e+03 
       1.656610596976e-02       2.394107137600e+03 
       1.669579819881e-02       2.393887773867e+03 
       1.682553529391e-02       2.393518723988e+03 
       1.695531787430e-02       2.393001655684e+03 
       1.708514658078e-02       2.392338876056e+03 
       1.721502207585e-02       2.391533245912e+03 
       1.734494504396e-02       2.390585263525e+03 
       1.747491619173e-02       2.389497712798e+03 
       1.760493624820e-02       2.388272606240e+03 
       1.773500596506e-02       2.386911938768e+03 
       1.786512611699e-02       2.385417796850e+03 
       1.799529750189e-02       2.383792073455e+03 
       1.812552094123e-02       2.382036789300e+03 
       1.825579728037e-02       2.380155836229e+03 
       1.838612738890e-02       2.378147530049e+03 
       1.851651216100e-02       2.376015405195e+03 
       1.864695251585e-02       2.373761497353e+03 
       1.877744939796e-02       2.371387812779e+03 
       1.890800377767e-02       2.368896117335e+03 
       1.903861665148e-02       2.366288330596e+03 
       1.916928904260e-02       2.363566201972e+03 
       1.930002200133e-02       2.360731838768e+03 
       1.943081660559e-02       2.357788026795e+03 
       1.956167396143e-02       2.354734572686e+03 
       1.969259520350e-02       2.351574218068e+03 
       1.982358149564e-02       2.348308761772e+03 
       1.995463403141e-02       2.344940046945e+03 
       2.008575403469e-02       2.341469734333e+03 
       2.021694276024e-02       2.337899659106e+03 
       2.034820149436e-02       2.334231466452e+03 
       2.047953155551e-02       2.330466955965e+03 
       2.061093429497e-02       2.326609771020e+03 
       2.074241109752e-02       2.322657698713e+03 
       2.087396338215e-02       2.318614449469e+03 
       2.100559260280e-02       2.314481288110e+03 
       2.113730024908e-02       2.310260083677e+03 
       2.126908784706e-02       2.305952482532e+03 
       2.140095696009e-02       2.301559938910e+03 
       2.153290918960e-02       2.297084112569e+03 
       2.166494617594e-02       2.292526489730e+03 
       2.179706959930e-02       2.287888763804e+03 
       2.192928118058e-02       2.283173254864e+03 
       2.206158268234e-02       2.278379534541e+03 
       2.219397590975e-02       2.273510140958e+03 
       2.232646271160e-02       2.268566496166e+03 
       2.245904498133e-02       2.263550079278e+03 
       2.259172465805e-02       2.258462246269e+03 
       2.272450372765e-02       2.253304535047e+03 
       2.285738422395e-02       2.248078399588e+03 
       2.299036822983e-02       2.242785184321e+03 
       2.312345787841e-02       2.237426277323e+03 
       2.325665535432e-02       2.232005147869e+03 
       2.338996289496e-02       2.226519203038e+03 
       2.352338279179e-02       2.220971702745e+03 
       2.365691739172e-02       2.215363987382e+03 
       2.379056909846e-02       2.209697379843e+03 
       2.392434037402e-02       2.203973312817e+03 
       2.405823374014e-02       2.198193028892e+03 
       2.419225177985e-02       2.192357890851e+03 
       2.432639713906e-02       2.186469166961e+03 
       2.446067252819e-02       2.180528190761e+03 
       2.459508072385e-02       2.174536197193e+03 
       2.472962457058e-02       2.168494394042e+03 
       2.486430698268e-02       2.162405209667e+03 
       2.499913094604e-02       2.156267753143e+03 
       2.513409952005e-02       2.150084265303e+03 
       2.526921583964e-02       2.143855998563e+03 
       2.540448311727e-02       2.137584181843e+03 
       2.553990464509e-02       2.131269933827e+03 
       2.567548379711e-02       2.124914513059e+03 
       2.581122403147e-02       2.118518950826e+03 
       2.594712889281e-02       2.112084486368e+03 
       2.608320201465e-02       2.105612139732e+03 
       2.621944712193e-02       2.099103115375e+03 
       2.635586803358e-02       2.092560570420e+03 
       2.649246866526e-02       2.085981557908e+03 
       2.662925303205e-02       2.079369061568e+03 
       2.676622525143e-02       2.072724155442e+03 
       2.690338954618e-02       2.066047815778e+03 
       2.704075024752e-02       2.059341087068e+03 
       2.717831179828e-02       2.052604969890e+03 
       2.731607875626e-02       2.045840421824e+03 
       2.745405579759e-02       2.039048349976e+03 
       2.759224772040e-02       2.032229807593e+03 
       2.773065944842e-02       2.025385622086e+03 
       2.786929603489e-02       2.018516769725e+03 
       2.800816266649e-02       2.011624170948e+03 
       2.814726466752e-02       2.004710019338e+03 
       2.828660750414e-02       1.997772586381e+03 
       2.842619678888e-02       1.990813962552e+03 
       2.856603828521e-02       1.983835066412e+03 
       2.870613791242e-02       1.976836705826e+03 
       2.884650175056e-02       1.969819658370e+03 
       2.898713604567e-02       1.962784789034e+03 
       2.912804721518e-02       1.955732963274e+03 
       2.926924185354e-02       1.948664866172e+03 
       2.941072673809e-02       1.941581297053e+03 
       2.955250883511e-02       1.934482743468e+03 
       2.969459530623e-02       1.927370529431e+03 
       2.983699351500e-02       1.920245175131e+03 
       2.997971103378e-02       1.913109449209e+03 
       3.012275565098e-02       1.905959958748e+03 
       3.026613537847e-02       1.898799340144e+03 
       3.040985845946e-02       1.891628378245e+03 
       3.055393337663e-02       1.884447625021e+03 
       3.069836886066e-02       1.877257785123e+03 
       3.084317389910e-02       1.870059658983e+03 
       3.098835774566e-02       1.862853593693e+03 
       3.113392992995e-02       1.855640382575e+03 
       3.127990026760e-02       1.848420510282e+03 
       3.142627887090e-02       1.841194655580e+03 
       3.157307615990e-02       1.833963176722e+03 
       3.172030287401e-02       1.826726854953e+03 
       3.186797008425e-02       1.819487269891e+03 
       3.201608920595e-02       1.812242696018e+03 
       3.216467201214e-02       1.804994525350e+03 
       3.231373064761e-02       1.797743653341e+03 
       3.246327764357e-02       1.790490333119e+03 
       3.261332593313e-02       1.783234946675e+03 
       3.276388886751e-02       1.775977959013e+03 
       3.291498023310e-02       1.768719844925e+03 
       3.306661426931e-02       1.761460922910e+03 
       3.321880568747e-02       1.754201691549e+03 
       3.337156969061e-02       1.746942384180e+03 
       3.352492199434e-02       1.739683509378e+03 
       3.367887884877e-02       1.732425306304e+03 
       3.383345706175e-02       1.725168070192e+03 
       3.398867402321e-02       1.717914419011e+03 
       3.414454773094e-02       1.710660278410e+03 
       3.430109681778e-02       1.703408091795e+03 
       3.445834058034e-02       1.696158045894e+03 
       3.461629900932e-02       1.688910487414e+03 
       3.477499282165e-02       1.681665672321e+03 
       3.493444349436e-02       1.674423694620e+03 
       3.509467330064e-02       1.667184906924e+03 
       3.525570534785e-02       1.659949422620e+03 
       3.541756361791e-02       1.652717424665e+03 
       3.558027301019e-02       1.645489131768e+03 
       3.574385938693e-02       1.638264637477e+03 
       3.590834962159e-02       1.631044030197e+03 
       3.607377165022e-02       1.623827415459e+03 
       3.624015452608e-02       1.616615905993e+03 
       3.640752847786e-02       1.609407536069e+03 
       3.657592497167e-02       1.602203387075e+03 
       3.674537677714e-02       1.595003425202e+03 
       3.691591803800e-02       1.587807628988e+03 
       3.708758434744e-02       1.580616093778e+03 
       3.726041282870e-02       1.573428660184e+03 
       3.743444222125e-02       1.566245297621e+03 
       3.760971297315e-02       1.559065939343e+03 
       3.778626733997e-02       1.551890370246e+03 
       3.796414949101e-02       1.544718619999e+03 
       3.814340562333e-02       1.537550401665e+03 
       3.832408408427e-02       1.530385546455e+03 
       3.850623550346e-02       1.523223910577e+03 
       3.868991293482e-02       1.516067395117e+03 
       3.887517200987e-02       1.508911520808e+03 
       3.906207110310e-02       1.501758082915e+03 
       3.925067151081e-02       1.494606827733e+03 
       3.944103764452e-02       1.487457344618e+03 
       3.963323724060e-02       1.480309292497e+03 
       3.982734158754e-02       1.473162244011e+03 
       4.002342577292e-02       1.466015775920e+03 
       4.022156895183e-02       1.458869499333e+03 
       4.042185463931e-02       1.451722807140e+03 
       4.062437102909e-02       1.444575189498e+03 
       4.082921134184e-02       1.437426085093e+03 
       4.103647420589e-02       1.430274813412e+03 
       4.124626407429e-02       1.423120599064e+03 
       4.145869168235e-02       1.415963998414e+03 
       4.167387455040e-02       1.408801933497e+03 
       4.189193753714e-02       1.401634646382e+03 
       4.211301344982e-02       1.394461297222e+03 
       4.233724371819e-02       1.387280828265e+03 
       4.256477914034e-02       1.380092330863e+03 
       4.279578070973e-02       1.372894522062e+03 
       4.303042053395e-02       1.365686466193e+03 
       4.326888285764e-02       1.358466782707e+03 
       4.351136520382e-02       1.351234139676e+03 
       4.375807965004e-02       1.343987124774e+03 
       4.400925425875e-02       1.336724275325e+03 
       4.426513468433e-02       1.329445946687e+03 
       4.452598598303e-02       1.322146374880e+03 
       4.479209465689e-02       1.314825572240e+03 
       4.506377096796e-02       1.307481644207e+03 
       4.534135156609e-02       1.300112192391e+03 
       4.562520248133e-02       1.292715019575e+03 
       4.591572254207e-02       1.285287370688e+03 
       4.621334729169e-02       1.277826612783e+03 
       4.651855349133e-02       1.270329531019e+03 
       4.683186431416e-02       1.262792757734e+03 
       4.715385535883e-02       1.255212803467e+03 
       4.748516163696e-02       1.247586612136e+03 
       4.782648572408e-02       1.239907720393e+03 
       4.817860730545e-02       1.232172267849e+03 
       4.854239440235e-02       1.224374831185e+03 
       4.891881663122e-02       1.216509564523e+03 
       4.930896093352e-02       1.208569655086e+03 
       4.971405032194e-02       1.200547439677e+03 
       5.013546632598e-02       1.192434419391e+03 
       5.057477599489e-02       1.184220753565e+03 
       5.103376453881e-02       1.175897334426e+03 
       5.151447497300e-02       1.167446466244e+03 
       5.201925649021e-02       1.158855170434e+03 
       5.255082373904e-02       1.150105247657e+03 
       5.311232974716e-02       1.141175326988e+03 
       5.370745590485e-02       1.132039550334e+03 
       5.434052320010e-02       1.122667568836e+03 
       5.501662970375e-02       1.113018173299e+03 
       5.574181995588e-02       1.103043573092e+03 
       5.652329198392e-02       1.092681894928e+03 
       5.736964630554e-02       1.081853721103e+03 
       5.829117668063e-02       1.070457904862e+03 
       5.930019127111e-02       1.058353723688e+03 
