# dimensionless total lensed [l(l+1)/2pi] C_l's
# for l=2 to 2600, i.e. number of multipoles equal to 2599
#
# -> if you prefer output in CAMB/HealPix/LensPix units/order, set 'format' to 'camb' in input file
# -> if you don't want to see such a header, set 'headers' to 'no' in input file
# -> for CMB lensing (phi), these are C_l^phi-phi for the lensing potential.
#    Remember the conversion factors:
#    C_l^dd (deflection) = l(l+1) C_l^phi-phi
#    C_l^gg (shear/convergence) = 1/4 (l(l+1))^2 C_l^phi-phi
#
# 1:l     2:TT                     3:EE                     4:TE                     5:BB                     6:phiphi                 7:TPhi                   8:Ephi               
    2       1.388095659895e-10       4.497853711376e-15       3.647277822644e-13       2.226609541995e-19       8.151253640395e-09       4.555003436192e-10      -1.915234374238e-12 
    3       1.311723646819e-10       6.002264197340e-15       4.166830791006e-13       4.453668256804e-19       5.050629305298e-09       3.231882376780e-10      -1.485346763321e-12 
    4       1.239882499123e-10       5.417675593069e-15       3.951299030341e-13       7.423791350260e-19       3.514012973471e-09       2.447086995473e-10      -1.004889974703e-12 
    5       1.185275689437e-10       3.777475339977e-15       3.407732813362e-13       1.113761219054e-18       2.620673135390e-09       1.932453512153e-10      -5.886040263935e-13 
    6       1.147559701178e-10       2.188264805858e-15       2.773053382010e-13       1.559594959663e-18       2.044615442601e-09       1.571665108655e-10      -2.707809023117e-13 
    7       1.123668689229e-10       1.182004924572e-15       2.190840550285e-13       2.079982245864e-18       1.648347017981e-09       1.307390369674e-10      -5.740792615543e-14 
    8       1.108685405490e-10       7.293810665652e-16       1.728115440337e-13       2.675046407195e-18       1.362023632296e-09       1.107251437357e-10       6.213907217157e-14 
    9       1.100841368070e-10       5.710535071114e-16       1.404463146028e-13       3.344933472807e-18       1.146792094610e-09       9.518216750070e-11       1.075795771841e-13 
   10       1.099906095582e-10       4.943080437801e-16       1.212606819930e-13       4.089813108684e-18       9.800830836632e-10       8.285759718483e-11       1.023345876336e-13 
   11       1.103456767566e-10       4.213225102550e-16       1.130410287340e-13       4.909879091970e-18       8.268129939093e-10       7.319125859354e-11       6.957981153767e-14 
   12       1.108526759726e-10       3.609239718327e-16       1.125461385133e-13       5.805349196007e-18       7.223366089926e-10       6.472544587908e-11       2.838156074063e-14 
   13       1.116516884058e-10       3.341868055703e-16       1.168940827481e-13       6.776464382032e-18       6.367796439058e-10       5.774238344102e-11      -7.564969857864e-15 
   14       1.127798897217e-10       3.399468270681e-16       1.240624168795e-13       7.823487222446e-18       5.652642147196e-10       5.182248976500e-11      -3.108808602327e-14 
   15       1.140016323910e-10       3.633991401876e-16       1.322315524732e-13       8.946699515064e-18       5.051505762236e-10       4.675371210779e-11      -4.057132762903e-14 
   16       1.152523382273e-10       3.954095237790e-16       1.405952265263e-13       1.014639908613e-17       4.540994754700e-10       4.243535461134e-11      -3.822507340571e-14 
   17       1.166840164465e-10       4.385571296145e-16       1.487209733305e-13       1.142289582039e-17       4.103770999460e-10       3.863822281210e-11      -2.885255116119e-14 
   18       1.182955581622e-10       5.022648599303e-16       1.568615816505e-13       1.277650744503e-17       3.723310538072e-10       3.529782912623e-11      -1.732731856702e-14 
   19       1.199954933584e-10       5.889272241162e-16       1.652007452052e-13       1.420755205119e-17       3.394193257639e-10       3.239738446276e-11      -6.966196652979e-15 
   20       1.216428567224e-10       6.973311894543e-16       1.738541330863e-13       1.571634721188e-17       3.105369435661e-10       2.983975439122e-11      -7.434134729242e-16 
   21       1.233535919786e-10       8.264153179083e-16       1.830428993770e-13       1.730319809078e-17       2.851693016601e-10       2.757875162608e-11       8.141742171224e-16 
   22       1.252737051185e-10       9.748032707906e-16       1.929197090545e-13       1.896839709877e-17       2.625812710488e-10       2.554772942067e-11      -1.579598040208e-15 
   23       1.272920556422e-10       1.142702883911e-15       2.030730218276e-13       2.071221303612e-17       2.424910773379e-10       2.371988234207e-11      -6.368525164386e-15 
   24       1.292160632532e-10       1.330473052239e-15       2.128727610213e-13       2.253489066085e-17       2.245107830434e-10       2.206306456879e-11      -1.145962392376e-14 
   25       1.311325856844e-10       1.537549294634e-15       2.220573416330e-13       2.443664183904e-17       2.084244021510e-10       2.058178897611e-11      -1.540236200391e-14 
   26       1.331850894889e-10       1.763234219971e-15       2.304571300944e-13       2.641764469891e-17       1.939109666147e-10       1.927160909892e-11      -1.705191722458e-14 
   27       1.353264436196e-10       2.008934779947e-15       2.378630701966e-13       2.847803812820e-17       1.807904401903e-10       1.809224366549e-11      -1.653982759108e-14 
   28       1.374489993446e-10       2.276815652708e-15       2.440845151429e-13       3.061792148654e-17       1.688383718040e-10       1.698774972779e-11      -1.452321829335e-14 
   29       1.395665878651e-10       2.568745082388e-15       2.491427080797e-13       3.283735844062e-17       1.579960773201e-10       1.595945710847e-11      -1.168984241631e-14 
   30       1.417267214700e-10       2.886643987244e-15       2.531632436242e-13       3.513636894129e-17       1.481503154466e-10       1.502081698952e-11      -8.907402822934e-15 
   31       1.439638188704e-10       3.232379185043e-15       2.562880312425e-13       3.751493153431e-17       1.391032604252e-10       1.417653181194e-11      -7.068608446155e-15 
   32       1.462641665811e-10       3.606862534067e-15       2.585172776838e-13       3.997300724819e-17       1.308070057061e-10       1.341617695981e-11      -6.306172986318e-15 
   33       1.485844845624e-10       4.010597464502e-15       2.598095594940e-13       4.251051966003e-17       1.231999614084e-10       1.271632121621e-11      -6.481890583511e-15 
   34       1.508786580350e-10       4.444017103959e-15       2.601102826870e-13       4.512735767823e-17       1.161729736391e-10       1.205016339082e-11      -7.368134744087e-15 
   35       1.531668335445e-10       4.907906652145e-15       2.593100506332e-13       4.782341630949e-17       1.096911406307e-10       1.141925630246e-11      -8.596854454806e-15 
   36       1.554892840542e-10       5.403116940528e-15       2.572696245625e-13       5.059856697928e-17       1.037050296631e-10       1.083211069344e-11      -9.679943425941e-15 
   37       1.578795114286e-10       5.930460843922e-15       2.538504082072e-13       5.345266485102e-17       9.813913949570e-11       1.029437936080e-11      -1.014645037284e-14 
   38       1.603351202812e-10       6.490752918466e-15       2.489866997958e-13       5.638561617282e-17       9.297866283000e-11       9.804610707515e-12      -9.994361236953e-15 
   39       1.628361621824e-10       7.084777337427e-15       2.426366978570e-13       5.939733237144e-17       8.820575262038e-11       9.356597190168e-12      -9.387143519278e-15 
   40       1.653517410453e-10       7.713273558052e-15       2.347634896799e-13       6.248771215231e-17       8.377300418835e-11       8.940092931834e-12      -8.537051433839e-15 
   41       1.678506429735e-10       8.376931895916e-15       2.253418936799e-13       6.565666320368e-17       7.961981804090e-11       8.543927002069e-12      -7.669973840109e-15 
   42       1.703396232602e-10       9.076385535319e-15       2.143810279943e-13       6.890417553072e-17       7.573407277136e-11       8.167348842817e-12      -6.898215362564e-15 
   43       1.728360177337e-10       9.812211002753e-15       2.019095350133e-13       7.223027218722e-17       7.210620302670e-11       7.811825347896e-12      -6.311902638739e-15 
   44       1.753571257864e-10       1.058492647913e-14       1.879703425161e-13       7.563499131635e-17       6.871075414287e-11       7.477830030954e-12      -6.014559963568e-15 
   45       1.779175867579e-10       1.139500343537e-14       1.726003076220e-13       7.911839471011e-17       6.551557840245e-11       7.165015435074e-12      -6.087994058579e-15 
   46       1.805208934611e-10       1.224291283360e-14       1.557602113643e-13       8.268059274059e-17       6.251569090762e-11       6.873005492471e-12      -6.472857612861e-15 
   47       1.831651107503e-10       1.312908757970e-14       1.373850481225e-13       8.632172962402e-17       5.970737797652e-11       6.600685814785e-12      -7.053513683382e-15 
   48       1.858448714870e-10       1.405390692321e-14       1.174027903479e-13       9.004197908001e-17       5.707796308049e-11       6.345887618624e-12      -7.689360611588e-15 
   49       1.885510975842e-10       1.501769426941e-14       9.573388819090e-14       9.384154634354e-17       5.460514127847e-11       6.105312205986e-12      -8.213438366636e-15 
   50       1.912742158818e-10       1.602070077734e-14       7.230524829232e-14       9.772065182935e-17       5.226367579014e-11       5.875459753130e-12      -8.478359171107e-15 
   51       1.940154820332e-10       1.706305598083e-14       4.709780423392e-14       1.016794722299e-16       5.004917473090e-11       5.655888095044e-12      -8.512030462097e-15 
   52       1.967782481667e-10       1.814479998225e-14       2.011099362442e-14       1.057181869069e-16       4.795961783193e-11       5.446707960965e-12      -8.401792146448e-15 
   53       1.995646249238e-10       1.926589370625e-14      -8.650415799735e-15       1.098369959629e-16       4.598824683783e-11       5.247628389521e-12      -8.251600277898e-15 
   54       2.023753669658e-10       2.042621604300e-14      -3.917614517446e-14       1.140361213898e-16       4.412324639461e-11       5.057928470730e-12      -8.182860425363e-15 
   55       2.052105460485e-10       2.162562565804e-14      -7.145745884525e-14       1.183157664208e-16       4.235135466725e-11       4.876746169861e-12      -8.303551095843e-15 
   56       2.080720283437e-10       2.286417094749e-14      -1.055107942042e-13       1.226759791305e-16       4.067047661046e-11       4.704093557046e-12      -8.604702555146e-15 
   57       2.109614119931e-10       2.414192723636e-14      -1.413596849761e-13       1.271167569624e-16       3.907964515541e-11       4.540044286387e-12      -9.039660833837e-15 
   58       2.138792114751e-10       2.545893635175e-14      -1.790281388894e-13       1.316380850863e-16       3.757520361770e-11       4.384423052730e-12      -9.553151183266e-15 
   59       2.168247737950e-10       2.681520628555e-14      -2.185407385722e-13       1.362399359192e-16       3.615063969171e-11       4.236789687496e-12      -1.008087599144e-14 
   60       2.197961946769e-10       2.821071085719e-14      -2.599227424488e-13       1.409222686452e-16       3.479641944493e-11       4.096423254522e-12      -1.054911269889e-14 
   61       2.227914651003e-10       2.964528987843e-14      -3.031919283431e-13       1.456850050296e-16       3.350263053404e-11       3.962537731969e-12      -1.089128965799e-14 
   62       2.258124012444e-10       3.111832422458e-14      -3.483317566489e-13       1.505279516045e-16       3.226798070934e-11       3.835021610286e-12      -1.110297111022e-14 
   63       2.288614519560e-10       3.262898689908e-14      -3.953123349732e-13       1.554508590859e-16       3.109253373337e-11       3.713836838233e-12      -1.119855683985e-14 
   64       2.319405023588e-10       3.417633267060e-14      -4.440979859658e-13       1.604534433307e-16       2.997500304251e-11       3.598793499268e-12      -1.119552721660e-14 
   65       2.350508290826e-10       3.575929457868e-14      -4.946470862181e-13       1.655353841045e-16       2.891267487583e-11       3.489541255426e-12      -1.111457980879e-14 
   66       2.381930554920e-10       3.737668043954e-14      -5.469119051614e-13       1.706963238496e-16       2.790133140390e-11       3.385560791207e-12      -1.097976599653e-14 
   67       2.413671069152e-10       3.902716935173e-14      -6.008384439658e-13       1.759358664531e-16       2.693517385759e-11       3.286155257463e-12      -1.081862758489e-14 
   68       2.445726523336e-10       4.070945550856e-14      -6.563759810931e-13       1.812536343560e-16       2.600837045721e-11       3.190630528038e-12      -1.065651677383e-14 
   69       2.478106334512e-10       4.242272128401e-14      -7.135083150754e-13       1.866494560725e-16       2.512023624817e-11       3.098897508434e-12      -1.049791421970e-14 
   70       2.510819664497e-10       4.416625416966e-14      -7.722285920233e-13       1.921232146284e-16       2.427096956404e-11       3.010977060914e-12      -1.034155354631e-14 
   71       2.543870511923e-10       4.593930821791e-14      -8.325302446895e-13       1.976747928370e-16       2.346008540887e-11       2.926818329781e-12      -1.018589112076e-14 
   72       2.577257388935e-10       4.774110431515e-14      -8.944070796192e-13       2.033040735593e-16       2.268638014092e-11       2.846295014243e-12      -1.002909390334e-14 
   73       2.610972997901e-10       4.957083045494e-14      -9.578533643013e-13       2.090109399639e-16       2.194789615656e-11       2.769201641268e-12      -9.869027297495e-15 
   74       2.645003908112e-10       5.142764201116e-14      -1.022863914319e-12       2.147952757873e-16       2.124188657403e-11       2.695249838437e-12      -9.703242999708e-15 
   75       2.679330232489e-10       5.331066201114e-14      -1.089434180499e-12       2.206569655935e-16       2.056477991728e-11       2.624064606806e-12      -9.528966849444e-15 
   76       2.713933045965e-10       5.521890649794e-14      -1.157553419829e-12       2.265959683488e-16       1.991306594082e-11       2.555280229965e-12      -9.344267914175e-15 
   77       2.748818917058e-10       5.715104429990e-14      -1.227182577852e-12       2.326125530580e-16       1.928621766128e-11       2.488856431562e-12      -9.151838725719e-15 
   78       2.783999283170e-10       5.910559374664e-14      -1.298272512614e-12       2.387071067696e-16       1.868424048561e-11       2.424813367017e-12      -8.955885516686e-15 
   79       2.819482943880e-10       6.108099245117e-14      -1.370770499307e-12       2.448800668086e-16       1.810678217930e-11       2.363135445150e-12      -8.761020016633e-15 
   80       2.855275896395e-10       6.307559604694e-14      -1.444620175599e-12       2.511319225395e-16       1.755311643888e-11       2.303769644160e-12      -8.572271524167e-15 
   81       2.891381171006e-10       6.508767692492e-14      -1.519761486959e-12       2.574632171304e-16       1.702212646454e-11       2.246623827603e-12      -8.395098979048e-15 
   82       2.927798666540e-10       6.711542297060e-14      -1.596130631986e-12       2.638745493157e-16       1.651228853262e-11       2.191565060367e-12      -8.235403034297e-15 
   83       2.964524985815e-10       6.915693630109e-14      -1.673660007734e-12       2.703665751602e-16       1.602165556823e-11       2.138417924654e-12      -8.099538128297e-15 
   84       3.001556431303e-10       7.121031420685e-14      -1.752283089339e-12       2.769399494346e-16       1.554832994058e-11       2.087009526147e-12      -7.992632567461e-15 
   85       3.038898923164e-10       7.327391016097e-14      -1.831950118081e-12       2.835951347143e-16       1.509200788939e-11       2.037316773946e-12      -7.913202346334e-15 
   86       3.076559431368e-10       7.534611396536e-14      -1.912614925923e-12       2.903325637193e-16       1.465266220317e-11       1.989340542475e-12      -7.857662394963e-15 
   87       3.114542851884e-10       7.742527351006e-14      -1.994230260294e-12       2.971526976256e-16       1.423006767644e-11       1.943060266086e-12      -7.821923054552e-15 
   88       3.152851895242e-10       7.950969489194e-14      -2.076747812341e-12       3.040560268133e-16       1.382379290453e-11       1.898433039747e-12      -7.801373712772e-15 
   89       3.191486975101e-10       8.159764253329e-14      -2.160118245193e-12       3.110430716155e-16       1.343319207833e-11       1.855392719725e-12      -7.790866439063e-15 
   90       3.230446096819e-10       8.368733930050e-14      -2.244291222213e-12       3.181143830663e-16       1.305739677912e-11       1.813849024280e-12      -7.784699619947e-15 
   91       3.269724746011e-10       8.577696662270e-14      -2.329215435257e-12       3.252705436498e-16       1.269530777334e-11       1.773686634344e-12      -7.776601594331e-15 
   92       3.309315777123e-10       8.786466461039e-14      -2.414838632932e-12       3.325121680486e-16       1.234558680739e-11       1.734764294215e-12      -7.759714288815e-15 
   93       3.349211822688e-10       8.994855348376e-14      -2.501106305244e-12       3.398398202570e-16       1.200697379811e-11       1.696949558084e-12      -7.728116765426e-15 
   94       3.389413177638e-10       9.202680128651e-14      -2.587957449892e-12       3.472537490363e-16       1.167931079684e-11       1.660230960877e-12      -7.681693525358e-15 
   95       3.429920900283e-10       9.409756662298e-14      -2.675328218506e-12       3.547541138712e-16       1.136265757559e-11       1.624621133674e-12      -7.621971548723e-15 
   96       3.470734321469e-10       9.615897866149e-14      -2.763153213200e-12       3.623410646648e-16       1.105697626501e-11       1.590122256551e-12      -7.550650331433e-15 
   97       3.511850967749e-10       9.820913754555e-14      -2.851365496385e-12       3.700147413397e-16       1.076212761576e-11       1.556725648569e-12      -7.469606658642e-15 
   98       3.553266484544e-10       1.002461148050e-13      -2.939896600583e-12       3.777752734380e-16       1.047786726004e-11       1.524411357764e-12      -7.380899378173e-15 
   99       3.594974559320e-10       1.022679537671e-13      -3.028676538239e-12       3.856227797218e-16       1.020384197298e-11       1.493147751143e-12      -7.286774173952e-15 
  100       3.636966844745e-10       1.042726699678e-13      -3.117633811538e-12       3.935573677741e-16       9.939585934066e-12       1.462891104671e-12      -7.189668339438e-15 
  101       3.679232881866e-10       1.062582515628e-13      -3.206695422213e-12       4.015791335986e-16       9.684516988657e-12       1.433585193269e-12      -7.092215551061e-15 
  102       3.721760023267e-10       1.082226597389e-13      -3.295786881364e-12       4.096881612207e-16       9.437932909362e-12       1.405160880798e-12      -6.997250641647e-15 
  103       3.764533356245e-10       1.101638291249e-13      -3.384832219268e-12       4.178845222879e-16       9.199007657512e-12       1.377535710057e-12      -6.907814373856e-15 
  104       3.807538884730e-10       1.120797223248e-13      -3.473755650561e-12       4.261683961932e-16       8.966978493106e-12       1.350633196343e-12      -6.826496566930e-15 
  105       3.850773730075e-10       1.139685010216e-13      -3.562486804810e-12       4.345404497880e-16       8.741744143070e-12       1.324444559472e-12      -6.753354138280e-15 
  106       3.894237171425e-10       1.158283788612e-13      -3.650956224101e-12       4.430015084568e-16       8.523340843238e-12       1.298974605301e-12      -6.687719409444e-15 
  107       3.937927469479e-10       1.176575703883e-13      -3.739093798432e-12       4.515524410885e-16       8.311757083996e-12       1.274222575679e-12      -6.628834170949e-15 
