# dimensionless total [l(l+1)/2pi] C_l's
# for l=2 to 3100, i.e. number of multipoles equal to 3099
#
# -> if you prefer output in CAMB/HealPix/LensPix units/order, set 'format' to 'camb' in input file
# -> if you don't want to see such a header, set 'headers' to 'no' in input file
# -> for CMB lensing (phi), these are C_l^phi-phi for the lensing potential.
#    Remember the conversion factors:
#    C_l^dd (deflection) = l(l+1) C_l^phi-phi
#    C_l^gg (shear/convergence) = 1/4 (l(l+1))^2 C_l^phi-phi
#
# 1:l     2:TT                     3:EE                     4:TE                     5:BB                     6:phiphi                 7:TPhi                   8:Ephi               
    2       1.388091037251e-10       4.497631050289e-15       3.647277862317e-13       0.000000000000e+00       8.151253640395e-09       4.555003436192e-10      -1.915234374238e-12 
    3       1.311714423923e-10       6.001818829206e-15       4.166830967819e-13       0.000000000000e+00       5.050629305298e-09       3.231882376780e-10      -1.485346763321e-12 
    4       1.239867176784e-10       5.416933207497e-15       3.951299538421e-13       0.000000000000e+00       3.514012973471e-09       2.447086995473e-10      -1.004889974703e-12 
    5       1.185252796650e-10       3.776361556683e-15       3.407733970909e-13       0.000000000000e+00       2.620673135390e-09       1.932453512153e-10      -5.886040263935e-13 
    6       1.147527800781e-10       2.186705150587e-15       2.773055658325e-13       0.000000000000e+00       2.044615442601e-09       1.571665108655e-10      -2.707809023117e-13 
    7       1.123626382712e-10       1.179924801688e-15       2.190844590399e-13       0.000000000000e+00       1.648347017981e-09       1.307390369674e-10      -5.740792615543e-14 
    8       1.108631336844e-10       7.267057286218e-16       1.728122086885e-13       0.000000000000e+00       1.362023632296e-09       1.107251437357e-10       6.213907217157e-14 
    9       1.100774226614e-10       5.677080221375e-16       1.404473458149e-13       0.000000000000e+00       1.146792094610e-09       9.518216750070e-11       1.075795771841e-13 
   10       1.099824617740e-10       4.902172614241e-16       1.212622089057e-13       0.000000000000e+00       9.800830836632e-10       8.285759718483e-11       1.023345876336e-13 
   11       1.103359737589e-10       4.164110283131e-16       1.130432049812e-13       0.000000000000e+00       8.268129939093e-10       7.319125859354e-11       6.957981153767e-14 
   12       1.108413009402e-10       3.551161049811e-16       1.125491431681e-13       0.000000000000e+00       7.223366089926e-10       6.472544587908e-11       2.838156074063e-14 
   13       1.116385291484e-10       3.274065583358e-16       1.168981209669e-13       0.000000000000e+00       6.367796439058e-10       5.774238344102e-11      -7.564969857864e-15 
   14       1.127648384731e-10       3.321178731730e-16       1.240677202616e-13       0.000000000000e+00       5.652642147196e-10       5.182248976500e-11      -3.108808602327e-14 
   15       1.139845855319e-10       3.544448103765e-16       1.322383791553e-13       0.000000000000e+00       5.051505762236e-10       4.675371210779e-11      -4.057132762903e-14 
   16       1.152331959518e-10       3.852528040832e-16       1.406038610401e-13       0.000000000000e+00       4.540994754700e-10       4.243535461134e-11      -3.822507340571e-14 
   17       1.166626823895e-10       4.271206717187e-16       1.487317262501e-13       0.000000000000e+00       4.103770999460e-10       3.863822281210e-11      -2.885255116119e-14 
   18       1.182719389964e-10       4.894710038301e-16       1.568747890458e-13       0.000000000000e+00       3.723310538072e-10       3.529782912623e-11      -1.732731856702e-14 
   19       1.199694984256e-10       5.746980402350e-16       1.652167680000e-13       0.000000000000e+00       3.394193257639e-10       3.239738446276e-11      -6.966196652979e-15 
   20       1.216143975913e-10       6.815885237953e-16       1.738733561527e-13       0.000000000000e+00       3.105369435661e-10       2.983975439122e-11      -7.434134729242e-16 
   21       1.233225821463e-10       8.090808642027e-16       1.830657306920e-13       0.000000000000e+00       2.851693016601e-10       2.757875162608e-11       8.141742171224e-16 
   22       1.252400596286e-10       9.557986443677e-16       1.929465785709e-13       0.000000000000e+00       2.625812710488e-10       2.554772942067e-11      -1.579598040208e-15 
   23       1.272556908879e-10       1.121949714562e-15       2.031043804403e-13       0.000000000000e+00       2.424910773379e-10       2.371988234207e-11      -6.368525164386e-15 
   24       1.291768966974e-10       1.307893079297e-15       2.129090792382e-13       0.000000000000e+00       2.245107830434e-10       2.206306456879e-11      -1.145962392376e-14 
   25       1.310905358125e-10       1.513064468912e-15       2.220991083425e-13       0.000000000000e+00       2.084244021510e-10       2.058178897611e-11      -1.540236200391e-14 
   26       1.331400756591e-10       1.736766811386e-15       2.305048510277e-13       0.000000000000e+00       1.939109666147e-10       1.927160909892e-11      -1.705191722458e-14 
   27       1.352783861277e-10       1.980407481012e-15       2.379172664084e-13       0.000000000000e+00       1.807904401903e-10       1.809224366549e-11      -1.653982759108e-14 
   28       1.373978194232e-10       2.246151683212e-15       2.441457211985e-13       0.000000000000e+00       1.688383718040e-10       1.698774972779e-11      -1.452321829335e-14 
   29       1.395122079787e-10       2.535868250627e-15       2.492114701267e-13       0.000000000000e+00       1.579960773201e-10       1.595945710847e-11      -1.168984241631e-14 
   30       1.416690654131e-10       2.851478790595e-15       2.532401172340e-13       0.000000000000e+00       1.481503154466e-10       1.502081698952e-11      -8.907402822934e-15 
   31       1.439028118746e-10       3.194850899301e-15       2.563735789642e-13       0.000000000000e+00       1.391032604252e-10       1.417653181194e-11      -7.068608446155e-15 
   32       1.461997357248e-10       3.566897198605e-15       2.586120661007e-13       0.000000000000e+00       1.308070057061e-10       1.341617695981e-11      -6.306172986318e-15 
   33       1.485165590311e-10       3.968121938710e-15       2.599141563140e-13       0.000000000000e+00       1.231999614084e-10       1.271632121621e-11      -6.481890583511e-15 
   34       1.508071693452e-10       4.398959117571e-15       2.602252535113e-13       0.000000000000e+00       1.161729736391e-10       1.205016339082e-11      -7.368134744087e-15 
   35       1.530917158262e-10       4.860194730866e-15       2.594359547456e-13       0.000000000000e+00       1.096911406307e-10       1.141925630246e-11      -8.596854454806e-15 
   36       1.554104743401e-10       5.352680413063e-15       2.574070110407e-13       0.000000000000e+00       1.037050296631e-10       1.083211069344e-11      -9.679943425941e-15 
   37       1.577969498684e-10       5.877229845518e-15       2.539998116763e-13       0.000000000000e+00       9.813913949570e-11       1.029437936080e-11      -1.014645037284e-14 
   38       1.602487500625e-10       6.434658272115e-15       2.491486347226e-13       0.000000000000e+00       9.297866283000e-11       9.804610707515e-12      -9.994361236953e-15 
   39       1.627459296846e-10       7.025750512486e-15       2.428116534593e-13       0.000000000000e+00       8.820575262038e-11       9.356597190168e-12      -9.387143519278e-15 
   40       1.652575960966e-10       7.651246656865e-15       2.349519249366e-13       0.000000000000e+00       8.377300418835e-11       8.940092931834e-12      -8.537051433839e-15 
   41       1.677525389376e-10       8.311837629136e-15       2.255442318144e-13       0.000000000000e+00       7.961981804090e-11       8.543927002069e-12      -7.669973840109e-15 
   42       1.702375164967e-10       9.008157167848e-15       2.145976497165e-13       0.000000000000e+00       7.573407277136e-11       8.167348842817e-12      -6.898215362564e-15 
   43       1.727298675130e-10       9.740782313229e-15       2.021407722167e-13       0.000000000000e+00       7.210620302670e-11       7.811825347896e-12      -6.311902638739e-15 
   44       1.752468943826e-10       1.051023172201e-14       1.882164719976e-13       0.000000000000e+00       6.871075414287e-11       7.477830030954e-12      -6.014559963568e-15 
   45       1.778032393447e-10       1.131697736644e-14       1.728615449659e-13       0.000000000000e+00       6.551557840245e-11       7.165015435074e-12      -6.087994058579e-15 
   46       1.804023973350e-10       1.216149095847e-14       1.560367059676e-13       0.000000000000e+00       6.251569090762e-11       6.873005492471e-12      -6.472857612861e-15 
   47       1.830424350347e-10       1.304420623879e-14       1.376768769976e-13       0.000000000000e+00       5.970737797652e-11       6.600685814785e-12      -7.053513683382e-15 
   48       1.857179870171e-10       1.396550331443e-14       1.177099513217e-13       0.000000000000e+00       5.707796308049e-11       6.345887618624e-12      -7.689360611588e-15 
   49       1.884199767849e-10       1.492570647064e-14       9.605629287959e-14       0.000000000000e+00       5.460514127847e-11       6.105312205986e-12      -8.213438366636e-15 
   50       1.911388325852e-10       1.592506788872e-14       7.264271637927e-14       0.000000000000e+00       5.226367579014e-11       5.875459753130e-12      -8.478359171107e-15 
   51       1.938758111049e-10       1.696371866622e-14       4.745006259494e-14       0.000000000000e+00       5.004917473090e-11       5.655888095044e-12      -8.512030462097e-15 
   52       1.966342652614e-10       1.804170071929e-14       2.047767153277e-14       0.000000000000e+00       4.795961783193e-11       5.446707960965e-12      -8.401792146448e-15 
   53       1.994163062836e-10       1.915897693085e-14      -8.269793030373e-15       0.000000000000e+00       4.598824683783e-11       5.247628389521e-12      -8.251600277898e-15 
   54       2.022226892100e-10       2.031542829908e-14      -3.878216269991e-14       0.000000000000e+00       4.412324639461e-11       5.057928470730e-12      -8.182860425363e-15 
   55       2.050534861889e-10       2.151091580757e-14      -7.105081637886e-14       0.000000000000e+00       4.235135466725e-11       4.876746169861e-12      -8.303551095843e-15 
   56       2.079105645611e-10       2.274549056655e-14      -1.050923017843e-13       0.000000000000e+00       4.067047661046e-11       4.704093557046e-12      -8.604702555146e-15 
   57       2.107955238268e-10       2.401923088072e-14      -1.409302652551e-13       0.000000000000e+00       3.907964515541e-11       4.540044286387e-12      -9.039660833837e-15 
   58       2.137088797960e-10       2.533218177886e-14      -1.785888318672e-13       0.000000000000e+00       3.757520361770e-11       4.384423052730e-12      -9.553151183266e-15 
   59       2.166499807797e-10       2.668435468397e-14      -2.180927063830e-13       0.000000000000e+00       3.615063969171e-11       4.236789687496e-12      -1.008087599144e-14 
   60       2.196169237818e-10       2.807572708349e-14      -2.594672742003e-13       0.000000000000e+00       3.479641944493e-11       4.096423254522e-12      -1.054911269889e-14 
   61       2.226077013866e-10       2.950614249306e-14      -3.027304426463e-13       0.000000000000e+00       3.350263053404e-11       3.962537731969e-12      -1.089128965799e-14 
   62       2.256241328432e-10       3.097498485491e-14      -3.478657964988e-13       0.000000000000e+00       3.226798070934e-11       3.835021610286e-12      -1.110297111022e-14 
   63       2.286686706516e-10       3.248143013685e-14      -3.948435686469e-13       0.000000000000e+00       3.109253373337e-11       3.713836838233e-12      -1.119855683985e-14 
   64       2.317432038566e-10       3.402453616525e-14      -4.436282101091e-13       0.000000000000e+00       2.997500304251e-11       3.598793499268e-12      -1.119552721660e-14 
   65       2.348490132885e-10       3.560323913166e-14      -4.941782289094e-13       0.000000000000e+00       2.891267487583e-11       3.489541255426e-12      -1.111457980879e-14 
   66       2.379867268041e-10       3.721635009938e-14      -5.464460289535e-13       0.000000000000e+00       2.790133140390e-11       3.385560791207e-12      -1.097976599653e-14 
   67       2.411562745272e-10       3.886255150999e-14      -6.003777489053e-13       0.000000000000e+00       2.693517385759e-11       3.286155257463e-12      -1.081862758489e-14 
   68       2.443573304168e-10       4.054054060990e-14      -6.559228075005e-13       0.000000000000e+00       2.600837045721e-11       3.190630528038e-12      -1.065651677383e-14 
   69       2.475908409200e-10       4.224950128599e-14      -7.130651456018e-13       0.000000000000e+00       2.512023624817e-11       3.098897508434e-12      -1.049791421970e-14 
   70       2.508577270803e-10       4.398872199980e-14      -7.717980542433e-13       0.000000000000e+00       2.427096956404e-11       3.010977060914e-12      -1.034155354631e-14 
   71       2.541583938744e-10       4.575745758620e-14      -8.321151138701e-13       0.000000000000e+00       2.346008540887e-11       2.926818329781e-12      -1.018589112076e-14 
   72       2.574926978914e-10       4.755492951752e-14      -8.940102814613e-13       0.000000000000e+00       2.268638014092e-11       2.846295014243e-12      -1.002909390334e-14 
   73       2.608599150110e-10       4.938032616765e-14      -9.574779776530e-13       0.000000000000e+00       2.194789615656e-11       2.769201641268e-12      -9.869027297495e-15 
   74       2.642587080830e-10       5.123280307615e-14      -1.022513173861e-12       0.000000000000e+00       2.124188657403e-11       2.695249838437e-12      -9.703242999708e-15 
   75       2.676870946057e-10       5.311148321239e-14      -1.089111479402e-12       0.000000000000e+00       2.056477991728e-11       2.624064606806e-12      -9.528966849444e-15 
   76       2.711431879957e-10       5.501538239794e-14      -1.157262311906e-12       0.000000000000e+00       1.991306594082e-11       2.555280229965e-12      -9.344267914175e-15 
   77       2.746276488999e-10       5.694316928943e-14      -1.226926778142e-12       0.000000000000e+00       1.928621766128e-11       2.488856431562e-12      -9.151838725719e-15 
   78       2.781416242480e-10       5.889336190392e-14      -1.298055899197e-12       0.000000000000e+00       1.868424048561e-11       2.424813367017e-12      -8.955885516686e-15 
   79       2.816859971253e-10       6.086439732772e-14      -1.370597115536e-12       0.000000000000e+00       1.810678217930e-11       2.363135445150e-12      -8.761020016633e-15 
   80       2.852613703151e-10       6.285463044579e-14      -1.444494232289e-12       0.000000000000e+00       1.755311643888e-11       2.303769644160e-12      -8.572271524167e-15 
   81       2.888680498402e-10       6.486233267121e-14      -1.519687364543e-12       0.000000000000e+00       1.702212646454e-11       2.246623827603e-12      -8.395098979048e-15 
   82       2.925060285050e-10       6.688569067458e-14      -1.596112882632e-12       0.000000000000e+00       1.651228853262e-11       2.191565060367e-12      -8.235403034297e-15 
   83       2.961749694376e-10       6.892280511343e-14      -1.673703357424e-12       0.000000000000e+00       1.602165556823e-11       2.138417924654e-12      -8.099538128297e-15 
   84       2.998745057194e-10       7.097177208407e-14      -1.752392434742e-12       0.000000000000e+00       1.554832994058e-11       2.087009526147e-12      -7.992632567461e-15 
   85       3.036052323993e-10       7.303094577481e-14      -1.832130506907e-12       0.000000000000e+00       1.509200788939e-11       2.037316773946e-12      -7.913202346334e-15 
   86       3.073678495244e-10       7.509871722799e-14      -1.912871550976e-12       0.000000000000e+00       1.465266220317e-11       1.989340542475e-12      -7.857662394963e-15 
   87       3.111628496918e-10       7.717343560693e-14      -1.994568458325e-12       0.000000000000e+00       1.423006767644e-11       1.943060266086e-12      -7.821923054552e-15 
   88       3.149905069035e-10       7.925340831569e-14      -2.077173062780e-12       0.000000000000e+00       1.382379290453e-11       1.898433039747e-12      -7.801373712772e-15 
   89       3.188508654206e-10       8.133690111873e-14      -2.160636168752e-12       0.000000000000e+00       1.343319207833e-11       1.855392719725e-12      -7.790866439063e-15 
   90       3.227437286172e-10       8.342213826069e-14      -2.244907579367e-12       0.000000000000e+00       1.305739677912e-11       1.813849024280e-12      -7.784699619947e-15 
   91       3.266686478355e-10       8.550730258604e-14      -2.329936124601e-12       0.000000000000e+00       1.269530777334e-11       1.773686634344e-12      -7.776601594331e-15 
   92       3.306249112393e-10       8.759053565888e-14      -2.415669689409e-12       0.000000000000e+00       1.234558680739e-11       1.734764294215e-12      -7.759714288815e-15 
   93       3.346117853195e-10       8.966995862453e-14      -2.502053893428e-12       0.000000000000e+00       1.200697379811e-11       1.696949558084e-12      -7.728116765426e-15 
   94       3.386293051670e-10       9.174373812362e-14      -2.589027841813e-12       0.000000000000e+00       1.167931079684e-11       1.660230960877e-12      -7.681693525358e-15 
   95       3.426775830029e-10       9.381003055897e-14      -2.676527784368e-12       0.000000000000e+00       1.136265757559e-11       1.624621133674e-12      -7.621971548723e-15 
   96       3.467565585428e-10       9.586696263600e-14      -2.764488416526e-12       0.000000000000e+00       1.105697626501e-11       1.590122256551e-12      -7.550650331433e-15 
   97       3.508659913200e-10       9.791263176714e-14      -2.852842888975e-12       0.000000000000e+00       1.076212761576e-11       1.556725648569e-12      -7.469606658642e-15 
   98       3.550054530074e-10       9.994510647631e-14      -2.941522817279e-12       0.000000000000e+00       1.047786726004e-11       1.524411357764e-12      -7.380899378173e-15 
   99       3.591743197401e-10       1.019624268033e-13      -3.030458291500e-12       0.000000000000e+00       1.020384197298e-11       1.493147751143e-12      -7.286774173952e-15 
  100       3.633717644380e-10       1.039626047083e-13      -3.119577885825e-12       0.000000000000e+00       9.939585934066e-12       1.462891104671e-12      -7.189668339438e-15 
  101       3.675967491278e-10       1.059436244761e-13      -3.208808668181e-12       0.000000000000e+00       9.684516988657e-12       1.433585193269e-12      -7.092215551061e-15 
  102       3.718480172658e-10       1.079034431211e-13      -3.298076209866e-12       0.000000000000e+00       9.437932909362e-12       1.405160880798e-12      -6.997250641647e-15 
  103       3.761240860600e-10       1.098399907908e-13      -3.387304595166e-12       0.000000000000e+00       9.199007657512e-12       1.377535710057e-12      -6.907814373856e-15 
  104       3.804235638720e-10       1.117512248520e-13      -3.476418088030e-12       0.000000000000e+00       8.966978493106e-12       1.350633196343e-12      -6.826496566930e-15 
  105       3.847461677875e-10       1.136352995947e-13      -3.565346367778e-12       0.000000000000e+00       8.741744143070e-12       1.324444559472e-12      -6.753354138280e-15 
  106       3.890918298316e-10       1.154904203133e-13      -3.654020021893e-12       0.000000000000e+00       8.523340843238e-12       1.298974605301e-12      -6.687719409444e-15 
  107       3.934603801084e-10       1.173147926549e-13      -3.742368979622e-12       0.000000000000e+00       8.311757083996e-12       1.274222575679e-12      -6.628834170949e-15 
