# Matter power spectrum P(k) at redshift z=3
# for k=1.04302e-05 to 1.4771 h/Mpc,
# number of wavenumbers equal to 614
#    1:k (h/Mpc)              2:P (Mpc/h)^3        
       1.043022675751e-05       4.789350545403e+00 
       2.328712111599e-05       1.041570664466e+01 
       3.618906036317e-05       1.595450507291e+01 
       4.917062842342e-05       2.146098525579e+01 
       6.226697912021e-05       2.696724703625e+01 
       7.551414846758e-05       3.249775139305e+01 
       8.894937691165e-05       3.807367980008e+01 
       1.026114457933e-04       4.371472923012e+01 
       1.165410323359e-04       4.944003968797e+01 
       1.307810874955e-04       5.526876248407e+01 
       1.453772410175e-04       6.122046036226e+01 
       1.603782379871e-04       6.731542415388e+01 
       1.758364109861e-04       7.357494660496e+01 
       1.918081916091e-04       8.002157578989e+01 
       2.083546644500e-04       8.667936065387e+01 
       2.255421656155e-04       9.357409549854e+01 
       2.434429261963e-04       1.007335670584e+02 
       2.621357587114e-04       1.081878052535e+02 
       2.817067810630e-04       1.159693356694e+02 
       3.022501676963e-04       1.241134295563e+02 
       3.238689110510e-04       1.326583429849e+02 
       3.466755676479e-04       1.416455393775e+02 
       3.707929518872e-04       1.511198656442e+02 
       3.963547265932e-04       1.611296772877e+02 
       4.235058225292e-04       1.717268720731e+02 
       4.524026000352e-04       1.829668013275e+02 
       4.832126458882e-04       1.949080156430e+02 
       5.161140799211e-04       2.076117967228e+02 
       5.512942328212e-04       2.211414243691e+02 
       5.889475545600e-04       2.355611289530e+02 
       6.292726292920e-04       2.509346882221e+02 
       6.724682151183e-04       2.673236744529e+02 
       7.187283022985e-04       2.847853124670e+02 
       7.682362933750e-04       3.033651506677e+02 
       8.211585471788e-04       3.231133095996e+02 
       8.776376786040e-04       3.440618270164e+02 
       9.377861385739e-04       3.662154936139e+02 
       1.001680677746e-03       3.895739810157e+02 
       1.069358289667e-03       4.141006826839e+02 
       1.140814116071e-03       4.397931832461e+02 
       1.216001586831e-03       4.665793852190e+02 
       1.294834796548e-03       4.944274403477e+02 
       1.377192845708e-03       5.232156130429e+02 
       1.462925655471e-03       5.528720264482e+02 
       1.477104874446e-03       5.577452164783e+02 
       1.551860643151e-03       5.833202458742e+02 
       1.643809632990e-03       6.144401877833e+02 
       1.738575458055e-03       6.461418312582e+02 
       1.835957849477e-03       6.783124046176e+02 
       1.935758369775e-03       7.108617204796e+02 
       2.037784295516e-03       7.437026191700e+02 
       2.141851471386e-03       7.767404681926e+02 
       2.247786236091e-03       8.099174710806e+02 
       2.355426562674e-03       8.431617522543e+02 
       2.464622569570e-03       8.764051061819e+02 
       2.575236552884e-03       9.095802254539e+02 
       2.687142673224e-03       9.426367143433e+02 
       2.800226408337e-03       9.755327374342e+02 
       2.914383859928e-03       1.008231236953e+03 
       3.029520981995e-03       1.040687668801e+03 
       3.145552779993e-03       1.072888156935e+03 
       3.262402515420e-03       1.104774026592e+03 
       3.380000938976e-03       1.136355270352e+03 
       3.498285566727e-03       1.167605089954e+03 
       3.617200007392e-03       1.198502028540e+03 
       3.736693344324e-03       1.229015788864e+03 
       3.856719572691e-03       1.259152380733e+03 
       3.977237090299e-03       1.288901294869e+03 
       4.098208239243e-03       1.318240517649e+03 
       4.219598894857e-03       1.347168654031e+03 
       4.341378098106e-03       1.375701001847e+03 
       4.463517727455e-03       1.403808174053e+03 
       4.585992206393e-03       1.431488005971e+03 
       4.708778242935e-03       1.458747422817e+03 
       4.831854597723e-03       1.485566924104e+03 
       4.955201877582e-03       1.511899364295e+03 
       5.078802351718e-03       1.537014988774e+03 
       5.202639788005e-03       1.564938288588e+03 
       5.326699307073e-03       1.588712757956e+03 
       5.450967252171e-03       1.614497092649e+03 
       5.575431072996e-03       1.637151113559e+03 
       5.700079221895e-03       1.659666925983e+03 
       5.824901061023e-03       1.686742534996e+03 
       5.949886779205e-03       1.708265843019e+03 
       6.075027317419e-03       1.732147042110e+03 
       6.200314301908e-03       1.752865480559e+03 
       6.325739984082e-03       1.773401716335e+03 
       6.451297186451e-03       1.798382863534e+03 
       6.576979253920e-03       1.818207761222e+03 
       6.702780009871e-03       1.837529538084e+03 
       6.828693716495e-03       1.858900587540e+03 
       6.954715038944e-03       1.877664184921e+03 
       7.080839012865e-03       1.896315092391e+03 
       7.207061014995e-03       1.917867842072e+03 
       7.333376736464e-03       1.935837841522e+03 
       7.459782158556e-03       1.953314604361e+03 
       7.586273530655e-03       1.970575246531e+03 
       7.712847350168e-03       1.988876685354e+03 
       7.839500344228e-03       2.005518096889e+03 
       7.966229452990e-03       2.021803460079e+03 
       8.093031814377e-03       2.040086497169e+03 
       8.219904750128e-03       2.055741823797e+03 
       8.346845753027e-03       2.071015170580e+03 
       8.473852475200e-03       2.086000197048e+03 
       8.600922717379e-03       2.101581409910e+03 
       8.728054419050e-03       2.115954364339e+03 
       8.855245649391e-03       2.129970889381e+03 
       8.982494598944e-03       2.143714472135e+03 
       9.109799571944e-03       2.158668226479e+03 
       9.237158979255e-03       2.171827706505e+03 
       9.364571331849e-03       2.184559292006e+03 
       9.492035234794e-03       2.197089948234e+03 
       9.619549381702e-03       2.209927199168e+03 
       9.747112549588e-03       2.221808581596e+03 
       9.874723594131e-03       2.233426732047e+03 
       1.000238144527e-02       2.244737315927e+03 
       1.013008510314e-02       2.256772861742e+03 
       1.025783363430e-02       2.267539173848e+03 
       1.038562616824e-02       2.277979672225e+03 
       1.051346189411e-02       2.288122694119e+03 
       1.064134005776e-02       2.297989074224e+03 
       1.076925995889e-02       2.308058147097e+03 
       1.089722094850e-02       2.317393817787e+03 
       1.102522242642e-02       2.326452567982e+03 
       1.115326383915e-02       2.335246216253e+03 
       1.128134467768e-02       2.343781215133e+03 
       1.140946447561e-02       2.352709940560e+03 
       1.153762280735e-02       2.360718581484e+03 
       1.166581928639e-02       2.368493411844e+03 
       1.179405356379e-02       2.375989203079e+03 
       1.192232532671e-02       2.383237977693e+03 
       1.205063429704e-02       2.390515284477e+03 
       1.217898023019e-02       2.397272113812e+03 
       1.230736291387e-02       2.403790210685e+03 
       1.243578216703e-02       2.410071608061e+03 
       1.256423783886e-02       2.416107395910e+03 
       1.269272980784e-02       2.421908887602e+03 
       1.282125798088e-02       2.427894178676e+03 
       1.294982229251e-02       2.433240550671e+03 
       1.307842270413e-02       2.438365657765e+03 
       1.320705920335e-02       2.443263991317e+03 
       1.333573180331e-02       2.447937850089e+03 
       1.346444054215e-02       2.452400327849e+03 
       1.359318548242e-02       2.456806317954e+03 
       1.372196671060e-02       2.460840416130e+03 
       1.385078433668e-02       2.464660433384e+03 
       1.397963849371e-02       2.468266043938e+03 
       1.410852933745e-02       2.471686319502e+03 
       1.423745704599e-02       2.474887341615e+03 
       1.436642181953e-02       2.478135504227e+03 
       1.449542388001e-02       2.480935851572e+03 
       1.462446347094e-02       2.483549632730e+03 
       1.475354085715e-02       2.485973437686e+03 
       1.477104874446e-02       2.486288892265e+03 
       1.488265632464e-02       2.488202863960e+03 
       1.501181018040e-02       2.490250058053e+03 
       1.514100275227e-02       2.492105466484e+03 
       1.527023438888e-02       2.493871155305e+03 
       1.539950545953e-02       2.495358550734e+03 
       1.552881635415e-02       2.496679726154e+03 
       1.565816748325e-02       2.497815586994e+03 
       1.578755927795e-02       2.498785946452e+03 
       1.591699218991e-02       2.499578220560e+03 
       1.604646669146e-02       2.500200610112e+03 
       1.617598327555e-02       2.500798184065e+03 
       1.630554245590e-02       2.501095138643e+03 
       1.643514476703e-02       2.501223118717e+03 
       1.656479076440e-02       2.501196889896e+03 
       1.669448102451e-02       2.501003205677e+03 
       1.682421614506e-02       2.500658348723e+03 
       1.695399674510e-02       2.500164627975e+03 
       1.708382346523e-02       2.499512333904e+03 
       1.721369696776e-02       2.498763399708e+03 
       1.734361793693e-02       2.497818682003e+03 
       1.747358707917e-02       2.496726788166e+03 
       1.760360512329e-02       2.495490479153e+03 
       1.773367282079e-02       2.494108621230e+03 
       1.786379094613e-02       2.492593588331e+03 
       1.799396029700e-02       2.490940096836e+03 
       1.812418169465e-02       2.489145356348e+03 
       1.825445598422e-02       2.487306791617e+03 
       1.838478403508e-02       2.485252632101e+03 
       1.851516674119e-02       2.483068418925e+03 
       1.864560502149e-02       2.480754278588e+03 
       1.877609982026e-02       2.478319710031e+03 
       1.890665210759e-02       2.475757845689e+03 
       1.903726287976e-02       2.473074073633e+03 
       1.916793315972e-02       2.470273146646e+03 
       1.929866399752e-02       2.467350043790e+03 
       1.942945647083e-02       2.464347118781e+03 
       1.956031168544e-02       2.461198336226e+03 
       1.969123077573e-02       2.457934255177e+03 
       1.982221490528e-02       2.454560950294e+03 
       1.995326526737e-02       2.451081655453e+03 
       2.008438308559e-02       2.447490590968e+03 
       2.021556961443e-02       2.443799564727e+03 
       2.034682613989e-02       2.440001481998e+03 
       2.047815398014e-02       2.436104667373e+03 
       2.060955448616e-02       2.432153696611e+03 
       2.074102904240e-02       2.428057658516e+03 
       2.087257906756e-02       2.423865780960e+03 
       2.100420601524e-02       2.419580280016e+03 
       2.113591137472e-02       2.415200121206e+03 
       2.126769667174e-02       2.410731979314e+03 
       2.139956346931e-02       2.406170641645e+03 
       2.153151336848e-02       2.401524923784e+03 
       2.166354800928e-02       2.396793214786e+03 
       2.179566907151e-02       2.391974381136e+03 
       2.192787827569e-02       2.387092473871e+03 
       2.206017738401e-02       2.382109979278e+03 
       2.219256820124e-02       2.377049875724e+03 
       2.232505257577e-02       2.371911086603e+03 
       2.245763240061e-02       2.366695422516e+03 
       2.259030961445e-02       2.361405252257e+03 
       2.272308620278e-02       2.356041607626e+03 
       2.285596419895e-02       2.350606281802e+03 
       2.298894568538e-02       2.345100653798e+03 
       2.312203279475e-02       2.339526346030e+03 
       2.325522771120e-02       2.333908852650e+03 
       2.338853267164e-02       2.328200674574e+03 
       2.352194996704e-02       2.322428067457e+03 
       2.365548194378e-02       2.316592289719e+03 
       2.378913100508e-02       2.310694922488e+03 
       2.392289961237e-02       2.304736994078e+03 
       2.405679028686e-02       2.298719944899e+03 
       2.419080561102e-02       2.292646061571e+03 
       2.432494823017e-02       2.286516338725e+03 
       2.445922085413e-02       2.280330135729e+03 
       2.459362625890e-02       2.274092078689e+03 
       2.472816728841e-02       2.267800711960e+03 
       2.486284685630e-02       2.261468437626e+03 
       2.499766794779e-02       2.255076053198e+03 
       2.513263362162e-02       2.248636585574e+03 
       2.526774701200e-02       2.242148241007e+03 
       2.540301133069e-02       2.235615456731e+03 
       2.553842986909e-02       2.229037813671e+03 
       2.567400600046e-02       2.222416372353e+03 
       2.580974318218e-02       2.215752204634e+03 
       2.594564495806e-02       2.209047845187e+03 
       2.608171496082e-02       2.202302253780e+03 
       2.621795691456e-02       2.195519077537e+03 
       2.635437463735e-02       2.188710578049e+03 
       2.649097204393e-02       2.181853016186e+03 
       2.662775314849e-02       2.174959143925e+03 
       2.676472206755e-02       2.168031686688e+03 
       2.690188302294e-02       2.161070703333e+03 
       2.703924034485e-02       2.154077238750e+03 
       2.717679847512e-02       2.147053015920e+03 
       2.731456197045e-02       2.139998827334e+03 
       2.745253550592e-02       2.132914946053e+03 
       2.759072387850e-02       2.125803680998e+03 
       2.772913201079e-02       2.118665086155e+03 
       2.786776495483e-02       2.111500562344e+03 
       2.800662789607e-02       2.104310845568e+03 
       2.814572615754e-02       2.097101279820e+03 
       2.828506520411e-02       2.089864761371e+03 
       2.842465064693e-02       2.082604927988e+03 
       2.856448824813e-02       2.075324192729e+03 
       2.870458392552e-02       2.068022785263e+03 
       2.884494375770e-02       2.060701938346e+03 
       2.898557398917e-02       2.053361512254e+03 
       2.912648103579e-02       2.046003942330e+03 
       2.926767149039e-02       2.038628753535e+03 
       2.940915212861e-02       2.031237259381e+03 
       2.955092991501e-02       2.023830353980e+03 
       2.969301200942e-02       2.016408336300e+03 
       2.983540577354e-02       2.008972969276e+03 
       2.997811877781e-02       2.001530426519e+03 
       3.012115880864e-02       1.994069080603e+03 
       3.026453387586e-02       1.986595959967e+03 
       3.040825222057e-02       1.979111864101e+03 
       3.055232232324e-02       1.971616939306e+03 
       3.069675291227e-02       1.964112613845e+03 
       3.084155297284e-02       1.956599213177e+03 
       3.098673175625e-02       1.949077383386e+03 
       3.113229878956e-02       1.941547968781e+03 
       3.127826388578e-02       1.934011025600e+03 
       3.142463715448e-02       1.926467872721e+03 
       3.157142901288e-02       1.918918373029e+03 
       3.171865019747e-02       1.911363489077e+03 
       3.186631177623e-02       1.903806330935e+03 
       3.201442516134e-02       1.896242344452e+03 
       3.216300212254e-02       1.888674735863e+03 
       3.231205480122e-02       1.881103694093e+03 
       3.246159572505e-02       1.873530184288e+03 
       3.261163782346e-02       1.865954169342e+03 
       3.276219444384e-02       1.858376374477e+03 
       3.291327936859e-02       1.850797369773e+03 
       3.306490683299e-02       1.843217161436e+03 
       3.321709154403e-02       1.835636727403e+03 
       3.336984870026e-02       1.828055994218e+03 
       3.352319401257e-02       1.820475345294e+03 
       3.367714372621e-02       1.812895654922e+03 
       3.383171464391e-02       1.805316625102e+03 
       3.398692415028e-02       1.797742284384e+03 
       3.414279023756e-02       1.790166357326e+03 
       3.429933153277e-02       1.782592413365e+03 
       3.445656732646e-02       1.775020506231e+03 
       3.461451760298e-02       1.767451153960e+03 
       3.477320307261e-02       1.759884581283e+03 
       3.493264520546e-02       1.752320786657e+03 
       3.509286626743e-02       1.744760318331e+03 
       3.525388935825e-02       1.737203240422e+03 
       3.541573845186e-02       1.729649603563e+03 
       3.557843843925e-02       1.722099796537e+03 
       3.574201517386e-02       1.714553606903e+03 
       3.590649551992e-02       1.707011545229e+03 
       3.607190740376e-02       1.699473503715e+03 
       3.623827986846e-02       1.691940712162e+03 
       3.640564313197e-02       1.684410971582e+03 
       3.657402864909e-02       1.676885603934e+03 
       3.674346917756e-02       1.669364558108e+03 
       3.691399884857e-02       1.661847678468e+03 
       3.708565324207e-02       1.654335240027e+03 
       3.725846946734e-02       1.646826996789e+03 
       3.743248624909e-02       1.639322932767e+03 
       3.760774401979e-02       1.631823027462e+03 
       3.778428501852e-02       1.624327020681e+03 
       3.796215339712e-02       1.616835018300e+03 
       3.814139533411e-02       1.609346658422e+03 
       3.832205915725e-02       1.601861789356e+03 
       3.850419547530e-02       1.594380364336e+03 
       3.868785732008e-02       1.586901981063e+03 
       3.887310029958e-02       1.579427825502e+03 
       3.905998276325e-02       1.571954791410e+03 
       3.924856598071e-02       1.564484051241e+03 
       3.943891433507e-02       1.557015113407e+03 
       3.963109553231e-02       1.549547711163e+03 
       3.982518082852e-02       1.542081355006e+03 
       4.002124527658e-02       1.534615535516e+03 
       4.021936799443e-02       1.527149933125e+03 
       4.041963245729e-02       1.519683822371e+03 
       4.062212681615e-02       1.512216754261e+03 
       4.082694424576e-02       1.504748099822e+03 
       4.103418332502e-02       1.497277211128e+03 
       4.124394845374e-02       1.489803276813e+03 
       4.145635030979e-02       1.482326192906e+03 
       4.167150635146e-02       1.474844048336e+03 
       4.188954137032e-02       1.467356492812e+03 
       4.211058810088e-02       1.459862687814e+03 
       4.233478789397e-02       1.452361508900e+03 
       4.256229146191e-02       1.444852033772e+03 
       4.279325970473e-02       1.437332980044e+03 
       4.302786462817e-02       1.429803298926e+03 
       4.326629036561e-02       1.422261549454e+03 
       4.350873431826e-02       1.414706457555e+03 
       4.375540843008e-02       1.407136433364e+03 
       4.400654061673e-02       1.399549946521e+03 
       4.426237637094e-02       1.391945892844e+03 
       4.452318057057e-02       1.384321203892e+03 
       4.478923952033e-02       1.376674530720e+03 
       4.506086326348e-02       1.369003778016e+03 
       4.533838820670e-02       1.361306552925e+03 
       4.562218010907e-02       1.353580490048e+03 
       4.591263749620e-02       1.345822833410e+03 
       4.621019557220e-02       1.338030725271e+03 
       4.651533071695e-02       1.330200969841e+03 
       4.682856567385e-02       1.322330082306e+03 
       4.715047555550e-02       1.314414346483e+03 
       4.748169482206e-02       1.306449746218e+03 
       4.782292542105e-02       1.298431360199e+03 
       4.817494632006e-02       1.290354289195e+03 
       4.853862471695e-02       1.282212946082e+03 
       4.891492927968e-02       1.274001084373e+03 
       4.930494585256e-02       1.265711690354e+03 
       4.970989617361e-02       1.257336876477e+03 
       5.013116028472e-02       1.248867663870e+03 
       5.057030349075e-02       1.240293847271e+03 
       5.102910894651e-02       1.231603987408e+03 
       5.150961723346e-02       1.222783891969e+03 
       5.201417464793e-02       1.213817979478e+03 
       5.254549237417e-02       1.204687447713e+03 
       5.310671927587e-02       1.195369943832e+03 
       5.370153171517e-02       1.185838530757e+03 
       5.433424458357e-02       1.176060494372e+03 
       5.500994853627e-02       1.165995044189e+03 
       5.573467907713e-02       1.155591572053e+03 
       5.651562322865e-02       1.144785770593e+03 
       5.736136816181e-02       1.133494837840e+03 
       5.828219161123e-02       1.121611093331e+03 
       5.929038287215e-02       1.108991811114e+03 
