# Matter power spectrum P(k) at redshift z=0
# for k=1.04302e-05 to 1.4771 h/Mpc,
# number of wavenumbers equal to 614
#    1:k (h/Mpc)              2:P (Mpc/h)^3        
       1.043022675751e-05       4.804482085906e+01 
       2.328712111599e-05       1.044858727990e+02 
       3.618906036317e-05       1.600479790372e+02 
       4.917062842342e-05       2.152849466728e+02 
       6.226697912021e-05       2.705184401410e+02 
       7.551414846758e-05       3.259934690971e+02 
       8.894937691165e-05       3.819221104507e+02 
       1.026114457933e-04       4.385015046299e+02 
       1.165410323359e-04       4.959231488637e+02 
       1.307810874955e-04       5.543785845223e+02 
       1.453772410175e-04       6.140633972669e+02 
       1.603782379871e-04       6.751803748480e+02 
       1.758364109861e-04       7.379631169750e+02 
       1.918081916091e-04       8.025968860540e+02 
       2.083546644500e-04       8.693408200189e+02 
       2.255421656155e-04       9.384522796764e+02 
       2.434429261963e-04       1.010297744602e+03 
       2.621357587114e-04       1.085003595435e+03 
       2.817067810630e-04       1.162880153053e+03 
       3.022501676963e-04       1.244355513558e+03 
       3.238689110510e-04       1.329994967446e+03 
       3.466755676479e-04       1.420248649560e+03 
       3.707929518872e-04       1.515114121439e+03 
       3.963547265932e-04       1.615113299322e+03 
       4.235058225292e-04       1.721132482905e+03 
       4.524026000352e-04       1.833551492317e+03 
       4.832126458882e-04       1.953141841934e+03 
       5.161140799211e-04       2.079972683354e+03 
       5.512942328212e-04       2.215355601780e+03 
       5.889475545600e-04       2.359219975144e+03 
       6.292726292920e-04       2.512689544736e+03 
       6.724682151183e-04       2.676388158403e+03 
       7.187283022985e-04       2.850815385132e+03 
       7.682362933750e-04       3.036098173492e+03 
       8.211585471788e-04       3.232981917711e+03 
       8.776376786040e-04       3.441716995002e+03 
       9.377861385739e-04       3.662661650385e+03 
       1.001680677746e-03       3.895634192205e+03 
       1.069358289667e-03       4.140238458165e+03 
       1.140814116071e-03       4.396378456816e+03 
       1.216001586831e-03       4.663420716799e+03 
       1.294834796548e-03       4.941089899338e+03 
       1.377192845708e-03       5.228101771845e+03 
       1.462925655471e-03       5.523829574885e+03 
       1.477104874446e-03       5.572416913621e+03 
       1.551860643151e-03       5.827221816011e+03 
       1.643809632990e-03       6.137384296355e+03 
       1.738575458055e-03       6.453302466067e+03 
       1.835957849477e-03       6.773895234885e+03 
       1.935758369775e-03       7.098261395774e+03 
       2.037784295516e-03       7.425427296644e+03 
       2.141851471386e-03       7.754709859198e+03 
       2.247786236091e-03       8.085242931562e+03 
       2.355426562674e-03       8.416368558956e+03 
       2.464622569570e-03       8.747402607952e+03 
       2.575236552884e-03       9.077757535296e+03 
       2.687142673224e-03       9.399241504363e+03 
       2.800226408337e-03       9.710542033972e+03 
       2.914383859928e-03       1.004312353689e+04 
       3.029520981995e-03       1.034948982447e+04 
       3.145552779993e-03       1.070521096517e+04 
       3.262402515420e-03       1.101148444931e+04 
       3.380000938976e-03       1.138926859048e+04 
       3.498285566727e-03       1.163016350296e+04 
       3.617200007392e-03       1.194164703865e+04 
       3.736693344324e-03       1.231019808701e+04 
       3.856719572691e-03       1.255664973998e+04 
       3.977237090299e-03       1.286452529555e+04 
       4.098208239243e-03       1.311268447209e+04 
       4.219598894857e-03       1.345923522821e+04 
       4.341378098106e-03       1.371130021909e+04 
       4.463517727455e-03       1.399955528798e+04 
       4.585992206393e-03       1.424762256016e+04 
       4.708778242935e-03       1.456650698271e+04 
       4.831854597723e-03       1.481158213596e+04 
       4.955201877582e-03       1.508570536187e+04 
       5.078802351718e-03       1.532462770416e+04 
       5.202639788005e-03       1.561592486825e+04 
       5.326699307073e-03       1.585016112273e+04 
       5.450967252171e-03       1.610523948596e+04 
       5.575431072996e-03       1.633323347491e+04 
       5.700079221895e-03       1.656064102633e+04 
       5.824901061023e-03       1.681893615519e+04 
       5.949886779205e-03       1.703852501061e+04 
       6.075027317419e-03       1.727042652915e+04 
       6.200314301908e-03       1.748294621550e+04 
       6.325739984082e-03       1.769295062752e+04 
       6.451297186451e-03       1.792351889477e+04 
       6.576979253920e-03       1.812640082515e+04 
       6.702780009871e-03       1.832500684857e+04 
       6.828693716495e-03       1.853098850352e+04 
       6.954715038944e-03       1.872306320846e+04 
       7.080839012865e-03       1.891256517264e+04 
       7.207061014995e-03       1.911222266224e+04 
       7.333376736464e-03       1.929456127245e+04 
       7.459782158556e-03       1.947269382511e+04 
       7.586273530655e-03       1.964778709614e+04 
       7.712847350168e-03       1.982487457489e+04 
       7.839500344228e-03       1.999313737157e+04 
       7.966229452990e-03       2.015783081924e+04 
       8.093031814377e-03       2.032783832473e+04 
       8.219904750128e-03       2.048576174373e+04 
       8.346845753027e-03       2.064008196341e+04 
       8.473852475200e-03       2.079116521495e+04 
       8.600922717379e-03       2.094230449205e+04 
       8.728054419050e-03       2.108684840247e+04 
       8.855245649391e-03       2.122797092145e+04 
       8.982494598944e-03       2.136599935685e+04 
       9.109799571944e-03       2.150627393018e+04 
       9.237158979255e-03       2.163804285158e+04 
       9.364571331849e-03       2.176634954066e+04 
       9.492035234794e-03       2.189175510444e+04 
       9.619549381702e-03       2.201614343631e+04 
       9.747112549588e-03       2.213526026747e+04 
       9.874723594131e-03       2.225147366043e+04 
       1.000238144527e-02       2.236465847040e+04 
       1.013008510314e-02       2.247835487867e+04 
       1.025783363430e-02       2.258575888552e+04 
       1.038562616824e-02       2.269013387575e+04 
       1.051346189411e-02       2.279161523728e+04 
       1.064134005776e-02       2.289026209308e+04 
       1.076925995889e-02       2.298771678667e+04 
       1.089722094850e-02       2.308086833010e+04 
       1.102522242642e-02       2.317124500467e+04 
       1.115326383915e-02       2.325893173370e+04 
       1.128134467768e-02       2.334396594450e+04 
       1.140946447561e-02       2.342854022798e+04 
       1.153762280735e-02       2.350830717605e+04 
       1.166581928639e-02       2.358558856524e+04 
       1.179405356379e-02       2.366020763715e+04 
       1.192232532671e-02       2.373231541760e+04 
       1.205063429704e-02       2.380283514520e+04 
       1.217898023019e-02       2.386999531145e+04 
       1.230736291387e-02       2.393472861602e+04 
       1.243578216703e-02       2.399706606069e+04 
       1.256423783886e-02       2.405700004894e+04 
       1.269272980784e-02       2.411455156622e+04 
       1.282125798088e-02       2.417116928749e+04 
       1.294982229251e-02       2.422414112927e+04 
       1.307842270413e-02       2.427489432576e+04 
       1.320705920335e-02       2.432340312628e+04 
       1.333573180331e-02       2.436969426640e+04 
       1.346444054215e-02       2.441384554269e+04 
       1.359318548242e-02       2.445631181307e+04 
       1.372196671060e-02       2.449616333787e+04 
       1.385078433668e-02       2.453386376129e+04 
       1.397963849371e-02       2.456950729173e+04 
       1.410852933745e-02       2.460316110293e+04 
       1.423745704599e-02       2.463474141247e+04 
       1.436642181953e-02       2.466513098170e+04 
       1.449542388001e-02       2.469273726900e+04 
       1.462446347094e-02       2.471841981745e+04 
       1.475354085715e-02       2.474218894913e+04 
       1.477104874446e-02       2.474526991393e+04 
       1.488265632464e-02       2.476404709286e+04 
       1.501181018040e-02       2.478404845375e+04 
       1.514100275227e-02       2.480217797817e+04 
       1.527023438888e-02       2.481878188326e+04 
       1.539950545953e-02       2.483326981843e+04 
       1.552881635415e-02       2.484601482748e+04 
       1.565816748325e-02       2.485697510310e+04 
       1.578755927795e-02       2.486622505319e+04 
       1.591699218991e-02       2.487374589146e+04 
       1.604646669146e-02       2.487957459029e+04 
       1.617598327555e-02       2.488419905911e+04 
       1.630554245590e-02       2.488674052448e+04 
       1.643514476703e-02       2.488763941479e+04 
       1.656479076440e-02       2.488695882788e+04 
       1.669448102451e-02       2.488467043897e+04 
       1.682421614506e-02       2.488084517275e+04 
       1.695399674510e-02       2.487549856889e+04 
       1.708382346523e-02       2.486861684482e+04 
       1.721369696776e-02       2.486041896047e+04 
       1.734361793693e-02       2.485059462640e+04 
       1.747358707917e-02       2.483930781387e+04 
       1.760360512329e-02       2.482659169004e+04 
       1.773367282079e-02       2.481245658080e+04 
       1.786379094613e-02       2.479695355884e+04 
       1.799396029700e-02       2.478007982745e+04 
       1.812418169465e-02       2.476183938632e+04 
       1.825445598422e-02       2.474257539993e+04 
       1.838478403508e-02       2.472172229502e+04 
       1.851516674119e-02       2.469958083133e+04 
       1.864560502149e-02       2.467614821808e+04 
       1.877609982026e-02       2.465150579951e+04 
       1.890665210759e-02       2.462563223604e+04 
       1.903726287976e-02       2.459852673937e+04 
       1.916793315972e-02       2.457025432552e+04 
       1.929866399752e-02       2.454079414232e+04 
       1.942945647083e-02       2.451030859363e+04 
       1.956031168544e-02       2.447858076733e+04 
       1.969123077573e-02       2.444573069487e+04 
       1.982221490528e-02       2.441178880486e+04 
       1.995326526737e-02       2.437677246336e+04 
       2.008438308559e-02       2.434068721407e+04 
       2.021556961443e-02       2.430357090227e+04 
       2.034682613989e-02       2.426543040945e+04 
       2.047815398014e-02       2.422628946731e+04 
       2.060955448616e-02       2.418632809431e+04 
       2.074102904240e-02       2.414522738968e+04 
       2.087257906756e-02       2.410317468377e+04 
       2.100420601524e-02       2.406018850677e+04 
       2.113591137472e-02       2.401627872756e+04 
       2.126769667174e-02       2.397147611739e+04 
       2.139956346931e-02       2.392577456681e+04 
       2.153151336848e-02       2.387921658313e+04 
       2.166354800928e-02       2.383180647002e+04 
       2.179566907151e-02       2.378355098790e+04 
       2.192787827569e-02       2.373455101805e+04 
       2.206017738401e-02       2.368467325684e+04 
       2.219256820124e-02       2.363401381433e+04 
       2.232505257577e-02       2.358257882176e+04 
       2.245763240061e-02       2.353038452962e+04 
       2.259030961445e-02       2.347744932403e+04 
       2.272308620278e-02       2.342378595619e+04 
       2.285596419895e-02       2.336941113291e+04 
       2.298894568538e-02       2.331433922366e+04 
       2.312203279475e-02       2.325858532042e+04 
       2.325522771120e-02       2.320226311728e+04 
       2.338853267164e-02       2.314518897446e+04 
       2.352194996704e-02       2.308746878877e+04 
       2.365548194378e-02       2.302913092477e+04 
       2.378913100508e-02       2.297017750603e+04 
       2.392289961237e-02       2.291062050891e+04 
       2.405679028686e-02       2.285048503923e+04 
       2.419080561102e-02       2.278978112084e+04 
       2.432494823017e-02       2.272852158116e+04 
       2.445922085413e-02       2.266671308858e+04 
       2.459362625890e-02       2.260438180501e+04 
       2.472816728841e-02       2.254152670114e+04 
       2.486284685630e-02       2.247821663083e+04 
       2.499766794779e-02       2.241436711376e+04 
       2.513263362162e-02       2.235004381793e+04 
       2.526774701200e-02       2.228524864137e+04 
       2.540301133069e-02       2.222000469478e+04 
       2.553842986909e-02       2.215431867715e+04 
       2.567400600046e-02       2.208820184802e+04 
       2.580974318218e-02       2.202166563740e+04 
       2.594564495806e-02       2.195472695775e+04 
       2.608171496082e-02       2.188738949681e+04 
       2.621795691456e-02       2.181967482468e+04 
       2.635437463735e-02       2.175165616867e+04 
       2.649097204393e-02       2.168320993458e+04 
       2.662775314849e-02       2.161441081776e+04 
       2.676472206755e-02       2.154527659293e+04 
       2.690188302294e-02       2.147581356796e+04 
       2.703924034485e-02       2.140603239431e+04 
       2.717679847512e-02       2.133594615523e+04 
       2.731456197045e-02       2.126556302312e+04 
       2.745253550592e-02       2.119489157070e+04 
       2.759072387850e-02       2.112394659333e+04 
       2.772913201079e-02       2.105273439771e+04 
       2.786776495483e-02       2.098126569331e+04 
       2.800662789607e-02       2.090954882667e+04 
       2.814572615754e-02       2.083762321541e+04 
       2.828506520411e-02       2.076544534596e+04 
       2.842465064693e-02       2.069304062432e+04 
       2.856448824813e-02       2.062042951105e+04 
       2.870458392552e-02       2.054761352368e+04 
       2.884494375770e-02       2.047460560333e+04 
       2.898557398917e-02       2.040141036638e+04 
       2.912648103579e-02       2.032804167329e+04 
       2.926767149039e-02       2.025450321033e+04 
       2.940915212861e-02       2.018080426059e+04 
       2.955092991501e-02       2.010695433167e+04 
       2.969301200942e-02       2.003295615645e+04 
       2.983540577354e-02       1.995882510380e+04 
       2.997811877781e-02       1.988461489772e+04 
       3.012115880864e-02       1.981023222198e+04 
       3.026453387586e-02       1.973573476209e+04 
       3.040825222057e-02       1.966113001556e+04 
       3.055232232324e-02       1.958642210683e+04 
       3.069675291227e-02       1.951162132745e+04 
       3.084155297284e-02       1.943673244596e+04 
       3.098673175625e-02       1.936176193917e+04 
       3.113229878956e-02       1.928671766512e+04 
       3.127826388578e-02       1.921160299154e+04 
       3.142463715448e-02       1.913642707425e+04 
       3.157142901288e-02       1.906119268641e+04 
       3.171865019747e-02       1.898590577926e+04 
       3.186631177623e-02       1.891059806047e+04 
       3.201442516134e-02       1.883522537749e+04 
       3.216300212254e-02       1.875981836572e+04 
       3.231205480122e-02       1.868438107510e+04 
       3.246159572505e-02       1.860891891641e+04 
       3.261163782346e-02       1.853343424971e+04 
       3.276219444384e-02       1.845793429417e+04 
       3.291327936859e-02       1.838242360272e+04 
       3.306490683299e-02       1.830690362182e+04 
       3.321709154403e-02       1.823138156540e+04 
       3.336984870026e-02       1.815585871097e+04 
       3.352319401257e-02       1.808033708028e+04 
       3.367714372621e-02       1.800482835097e+04 
       3.383171464391e-02       1.792932765768e+04 
       3.398692415028e-02       1.785388606075e+04 
       3.414279023756e-02       1.777842045486e+04 
       3.429933153277e-02       1.770297588264e+04 
       3.445656732646e-02       1.762755316243e+04 
       3.461451760298e-02       1.755215706109e+04 
       3.477320307261e-02       1.747679020161e+04 
       3.493264520546e-02       1.740145244493e+04 
       3.509286626743e-02       1.732614952301e+04 
       3.525388935825e-02       1.725088101591e+04 
       3.541573845186e-02       1.717564901902e+04 
       3.557843843925e-02       1.710045641586e+04 
       3.574201517386e-02       1.702530149475e+04 
       3.590649551992e-02       1.695018913651e+04 
       3.607190740376e-02       1.687511809033e+04 
       3.623827986846e-02       1.680010891751e+04 
       3.640564313197e-02       1.672512360707e+04 
       3.657402864909e-02       1.665018312206e+04 
       3.674346917756e-02       1.657528702870e+04 
       3.691399884857e-02       1.650043339850e+04 
       3.708565324207e-02       1.642562514396e+04 
       3.725846946734e-02       1.635085965161e+04 
       3.743248624909e-02       1.627613747397e+04 
       3.760774401979e-02       1.620145722766e+04 
       3.778428501852e-02       1.612681678287e+04 
       3.796215339712e-02       1.605221762160e+04 
       3.814139533411e-02       1.597765554541e+04 
       3.832205915725e-02       1.590312800005e+04 
       3.850419547530e-02       1.582863669372e+04 
       3.868785732008e-02       1.575417638979e+04 
       3.887310029958e-02       1.567978284917e+04 
       3.905998276325e-02       1.560537779033e+04 
       3.924856598071e-02       1.553099700494e+04 
       3.943891433507e-02       1.545663411504e+04 
       3.963109553231e-02       1.538228791388e+04 
       3.982518082852e-02       1.530795233823e+04 
       4.002124527658e-02       1.523362296901e+04 
       4.021936799443e-02       1.515929686452e+04 
       4.041963245729e-02       1.508496558523e+04 
       4.062212681615e-02       1.501062604200e+04 
       4.082694424576e-02       1.493627096324e+04 
       4.103418332502e-02       1.486189450842e+04 
       4.124394845374e-02       1.478748708584e+04 
       4.145635030979e-02       1.471306255486e+04 
       4.167150635146e-02       1.463857509496e+04 
       4.188954137032e-02       1.456403367877e+04 
       4.211058810088e-02       1.448943112119e+04 
       4.233478789397e-02       1.441475373020e+04 
       4.256229146191e-02       1.433999528045e+04 
       4.279325970473e-02       1.426514051704e+04 
       4.302786462817e-02       1.419018050004e+04 
       4.326629036561e-02       1.411510010794e+04 
       4.350873431826e-02       1.403988645253e+04 
       4.375540843008e-02       1.396452346320e+04 
       4.400654061673e-02       1.388899763901e+04 
       4.426237637094e-02       1.381332248251e+04 
       4.452318057057e-02       1.373741635900e+04 
       4.478923952033e-02       1.366128965365e+04 
       4.506086326348e-02       1.358492349132e+04 
       4.533838820670e-02       1.350829198758e+04 
       4.562218010907e-02       1.343137357813e+04 
       4.591263749620e-02       1.335413803867e+04 
       4.621019557220e-02       1.327655961840e+04 
       4.651533071695e-02       1.319860480969e+04 
       4.682856567385e-02       1.312023755776e+04 
       4.715047555550e-02       1.304142325089e+04 
       4.748169482206e-02       1.296213429526e+04 
       4.782292542105e-02       1.288229374664e+04 
       4.817494632006e-02       1.280186646433e+04 
       4.853862471695e-02       1.272079592706e+04 
       4.891492927968e-02       1.263902102879e+04 
       4.930494585256e-02       1.255647102839e+04 
       4.970989617361e-02       1.247306513640e+04 
       5.013116028472e-02       1.238871571250e+04 
       5.057030349075e-02       1.230332059042e+04 
       5.102910894651e-02       1.221679223837e+04 
       5.150961723346e-02       1.212893262975e+04 
       5.201417464793e-02       1.203961488166e+04 
       5.254549237417e-02       1.194864891367e+04 
       5.310671927587e-02       1.185581265605e+04 
       5.370153171517e-02       1.176083610489e+04 
       5.433424458357e-02       1.166340657298e+04 
       5.500994853627e-02       1.156308784368e+04 
       5.573467907713e-02       1.145938744648e+04 
       5.651562322865e-02       1.135166302436e+04 
       5.736136816181e-02       1.123908921872e+04 
       5.828219161123e-02       1.112062018202e+04 
       5.929038287215e-02       1.099477437136e+04 
