# dimensionless total lensed [l(l+1)/2pi] C_l's
# for l=2 to 2600, i.e. number of multipoles equal to 2599
#
# -> if you prefer output in CAMB/HealPix/LensPix units/order, set 'format' to 'camb' in input file
# -> if you don't want to see such a header, set 'headers' to 'no' in input file
# -> for CMB lensing (phi), these are C_l^phi-phi for the lensing potential.
#    Remember the conversion factors:
#    C_l^dd (deflection) = l(l+1) C_l^phi-phi
#    C_l^gg (shear/convergence) = 1/4 (l(l+1))^2 C_l^phi-phi
#
# 1:l     2:TT                     3:EE                     4:TE                     5:BB                     6:phiphi                 7:TPhi                   8:Ephi               
    2       1.625930556515e-10       4.311383472433e-15       2.520539629572e-13       2.294434228272e-19       9.188753336662e-09       6.881024582087e-10      -1.870648945897e-12 
    3       1.509039734777e-10       5.789629533611e-15       3.218010863825e-13       4.589313168154e-19       5.692052187010e-09       4.812609338201e-10      -1.434707519391e-12 
    4       1.405024849580e-10       5.203845337576e-15       3.291085799236e-13       7.649859269423e-19       3.946005068810e-09       3.618512517070e-10      -9.492025536805e-13 
    5       1.326225038093e-10       3.601997407934e-15       3.026725061236e-13       1.147670807153e-18       2.933462588935e-09       2.847559283889e-10      -5.316466181427e-13 
    6       1.268668744391e-10       2.085920038293e-15       2.615236007720e-13       1.607068766810e-18       2.281000476855e-09       2.311874592648e-10      -2.162620851412e-13 
    7       1.228852198009e-10       1.157470078724e-15       2.183959134465e-13       2.143283710802e-18       1.831680250343e-09       1.921767221942e-10      -8.308264471230e-15 
    8       1.201806119555e-10       7.582885140259e-16       1.806316604590e-13       2.756442471146e-18       1.508064520739e-09       1.627802136606e-10       1.038548250849e-13 
    9       1.184218730817e-10       6.188965296929e-16       1.514254258763e-13       3.446696458774e-18       1.266493695857e-09       1.399748539991e-10       1.411543853444e-13 
   10       1.174327743303e-10       5.352266910225e-16       1.316297059967e-13       4.214222961615e-18       1.080328158335e-09       1.218860929853e-10       1.282785657952e-13 
   11       1.170010716105e-10       4.448608147859e-16       1.208530859428e-13       5.059225922243e-18       9.063208166936e-10       1.072656335204e-10       8.934060533127e-14 
   12       1.169855434892e-10       3.681876514097e-16       1.173179744686e-13       5.981936044930e-18       7.901123768045e-10       9.531823275794e-11       4.419402039201e-14 
   13       1.173787327297e-10       3.308074881015e-16       1.191816196053e-13       6.982610107475e-18       6.948701391660e-10       8.507234422483e-11       5.837031141933e-15 
   14       1.180491805665e-10       3.316858508370e-16       1.247319101856e-13       8.061529386455e-18       6.157754394999e-10       7.651819627787e-11      -1.875350207329e-14 
   15       1.188227529031e-10       3.554745862857e-16       1.322338163934e-13       9.218997144301e-18       5.495756725068e-10       6.921919513791e-11      -2.838532520430e-14 
   16       1.197883298282e-10       3.923987419481e-16       1.408053208741e-13       1.045533517089e-17       4.932006487565e-10       6.287606777363e-11      -2.658036027451e-14 
   17       1.209738445450e-10       4.438326992865e-16       1.497078082048e-13       1.177087941925e-17       4.449283874554e-10       5.731693941567e-11      -1.773401198505e-14 
   18       1.223041602981e-10       5.166913128958e-16       1.587774034430e-13       1.316597534288e-17       4.031452412235e-10       5.244101670701e-11      -6.936944523698e-15 
   19       1.237470732335e-10       6.117119140445e-16       1.679337515002e-13       1.464096942292e-17       3.671141264810e-10       4.819348579795e-11       2.343800803307e-15 
   20       1.252372534832e-10       7.265035107556e-16       1.770718691366e-13       1.619620834787e-17       3.353850331625e-10       4.442008011025e-11       7.156567326208e-15 
   21       1.268316350910e-10       8.604744697459e-16       1.863641078373e-13       1.783202533385e-17       3.074835331512e-10       4.108650978135e-11       7.179119505434e-15 
   22       1.285787026832e-10       1.013373965764e-15       1.960119514893e-13       1.954873993334e-17       2.827869561199e-10       3.813922786846e-11       3.429112876295e-15 
   23       1.304067217256e-10       1.185774370964e-15       2.057663931546e-13       2.134664541971e-17       2.609203388717e-10       3.552260494960e-11      -2.262982335172e-15 
   24       1.322000052151e-10       1.378342756203e-15       2.152009446861e-13       2.322600849944e-17       2.413194642664e-10       3.314813902885e-11      -7.613736744854e-15 
   25       1.340332966102e-10       1.591492101843e-15       2.240931541949e-13       2.518705884454e-17       2.237604853638e-10       3.098753031035e-11      -1.145238118056e-14 
   26       1.360089255480e-10       1.825568074587e-15       2.322611107360e-13       2.722998838329e-17       2.079498183207e-10       2.901163725068e-11      -1.305948230184e-14 
   27       1.380710557808e-10       2.081593688417e-15       2.395022106233e-13       2.935494463891e-17       1.936884643223e-10       2.720633923919e-11      -1.261532005316e-14 
   28       1.401129879728e-10       2.360874535411e-15       2.456262933198e-13       3.156203056504e-17       1.807111771761e-10       2.555053316107e-11      -1.071757783761e-14 
   29       1.421511846850e-10       2.664934398284e-15       2.506054810181e-13       3.385130820776e-17       1.689484231711e-10       2.403975107696e-11      -8.069509052840e-15 
   30       1.442362728869e-10       2.995459446314e-15       2.544865973149e-13       3.622279013461e-17       1.582758440475e-10       2.266048145779e-11      -5.583240941022e-15 
   31       1.464056683205e-10       3.354096827447e-15       2.573365381503e-13       3.867644203087e-17       1.484771803625e-10       2.138783124167e-11      -4.181677046882e-15 
   32       1.486482183180e-10       3.741817287961e-15       2.591745353173e-13       4.121220892416e-17       1.394996970233e-10       2.021730751010e-11      -3.928119159606e-15 
   33       1.509228868034e-10       4.159301431236e-15       2.600168478827e-13       4.382999309645e-17       1.312760608779e-10       1.914261736439e-11      -4.566212549124e-15 
   34       1.531844187620e-10       4.607201606671e-15       2.598647755559e-13       4.652965731784e-17       1.236872004775e-10       1.815031328670e-11      -5.754730430027e-15 
   35       1.554486183757e-10       5.086520258116e-15       2.585991824509e-13       4.931107064172e-17       1.166940114707e-10       1.723371147786e-11      -7.132222424271e-15 
   36       1.577484760512e-10       5.598358019042e-15       2.560467739874e-13       5.217407498215e-17       1.102413288714e-10       1.638242325132e-11      -8.262887863106e-15 
   37       1.601106218388e-10       6.143753915825e-15       2.520376863276e-13       5.511849356714e-17       1.042457821775e-10       1.558270924160e-11      -8.733598241048e-15 
   38       1.625347856667e-10       6.723481491472e-15       2.465150124532e-13       5.814420755119e-17       9.869080618914e-11       1.483378453008e-11      -8.568049689085e-15 
   39       1.650063624115e-10       7.338178474109e-15       2.394609061003e-13       6.125110374955e-17       9.355692274547e-11       1.413611013717e-11      -7.949559316243e-15 
   40       1.675007905593e-10       7.988393964045e-15       2.308680436807e-13       6.443905424263e-17       8.879275788892e-11       1.348661193337e-11      -7.114825217319e-15 
   41       1.699923370503e-10       8.674631068341e-15       2.207378327065e-13       6.770794129513e-17       8.433267823705e-11       1.288001236503e-11      -6.312316270065e-15 
   42       1.724859930917e-10       9.397505393519e-15       2.090728544632e-13       7.105774161802e-17       8.016326516827e-11       1.231412872769e-11      -5.652442625016e-15 
   43       1.749944898427e-10       1.015762841740e-14       1.958829982414e-13       7.448846971302e-17       7.627381699727e-11       1.178575233436e-11      -5.214707611773e-15 
   44       1.775293289139e-10       1.095556111892e-14       1.811880991350e-13       7.800015720342e-17       7.263646708433e-11       1.128893305382e-11      -5.089233942859e-15 
   45       1.800996848735e-10       1.179182200545e-14       1.650015937414e-13       8.159286308955e-17       6.921614353054e-11       1.081693211456e-11      -5.343239473384e-15 
   46       1.827092177801e-10       1.266691984091e-14       1.472746099988e-13       8.526670386932e-17       6.600722115023e-11       1.036927447319e-11      -5.907343087378e-15 
   47       1.853579494859e-10       1.358132652652e-14       1.279359206625e-13       8.902183552797e-17       6.300550105545e-11       9.946445511329e-12      -6.656113177131e-15 
   48       1.880428129181e-10       1.453546566533e-14       1.069067745684e-13       9.285844814111e-17       6.019713841309e-11       9.547825683925e-12      -7.437712527809e-15 
   49       1.907573904030e-10       1.552971071119e-14       8.410037543230e-14       9.677676818584e-17       5.755792741880e-11       9.171603915823e-12      -8.072435449756e-15 
   50       1.934944143991e-10       1.656433888572e-14       5.943947281509e-14       1.007770404799e-16       5.506051466521e-11       8.815427916310e-12      -8.402536919750e-15 
   51       1.962546770196e-10       1.763938247718e-14       3.291597330999e-14       1.048594628578e-16       5.270000638473e-11       8.478764143579e-12      -8.461059183066e-15 
   52       1.990400865758e-10       1.875473397878e-14       4.546609211263e-15       1.090242377583e-16       5.047407603691e-11       8.161028726513e-12      -8.346302567615e-15 
   53       2.018509879809e-10       1.991018295362e-14      -2.564343615783e-14       1.132715923667e-16       4.837530960552e-11       7.860855841159e-12      -8.175467022525e-15 
   54       2.046860310693e-10       2.110541210223e-14      -5.762019730825e-14       1.176017799675e-16       4.639086367332e-11       7.576045785747e-12      -8.085602992034e-15 
   55       2.075434146335e-10       2.234010410528e-14      -9.135305939692e-14       1.220150336691e-16       4.450636054321e-11       7.304216421934e-12      -8.199090094918e-15 
   56       2.104252821045e-10       2.361430224258e-14      -1.268554448115e-13       1.265114110179e-16       4.271949004697e-11       7.045065964192e-12      -8.507852231140e-15 
   57       2.133341872041e-10       2.492813247148e-14      -1.641536539948e-13       1.310909131517e-16       4.102918780903e-11       6.798581365187e-12      -8.962044552324e-15 
   58       2.162717375192e-10       2.628170087554e-14      -2.032754381561e-13       1.357535285535e-16       3.943152124954e-11       6.564360212149e-12      -9.502583802286e-15 
   59       2.192385164209e-10       2.767509404796e-14      -2.442501537432e-13       1.404992325480e-16       3.791951273896e-11       6.341586205757e-12      -1.006071715738e-14 
   60       2.222340049833e-10       2.910837947494e-14      -2.871089169137e-13       1.453279867984e-16       3.648296275261e-11       6.129004639035e-12      -1.055759106685e-14 
   61       2.252573904549e-10       3.058147327453e-14      -3.318756025779e-13       1.502397107447e-16       3.511126560133e-11       5.925297998374e-12      -1.092187674886e-14 
   62       2.283103803722e-10       3.209370785428e-14      -3.785371311592e-13       1.552341895636e-16       3.380299525253e-11       5.730366758877e-12      -1.114824517002e-14 
   63       2.313948844228e-10       3.364416744840e-14      -4.270667561384e-13       1.603111445625e-16       3.255816712625e-11       5.544293872488e-12      -1.125131203533e-14 
   64       2.345121346699e-10       3.523180844943e-14      -4.774324976277e-13       1.654702580488e-16       3.137535511265e-11       5.366958423064e-12      -1.124887829367e-14 
   65       2.376626356008e-10       3.685545558300e-14      -5.295970063479e-13       1.707111719369e-16       3.025160967873e-11       5.198023800838e-12      -1.116207190221e-14 
   66       2.408461141758e-10       3.851379808243e-14      -5.835174276049e-13       1.760334863544e-16       2.918237597502e-11       5.036925876885e-12      -1.101548959072e-14 
   67       2.440614698769e-10       4.020538586346e-14      -6.391452652667e-13       1.814367582489e-16       2.816141194236e-11       4.882861177583e-12      -1.083733862601e-14 
   68       2.473074767950e-10       4.192878704819e-14      -6.964338069853e-13       1.869205648089e-16       2.718244463907e-11       4.735007115247e-12      -1.065382953294e-14 
   69       2.505851667467e-10       4.368310615204e-14      -7.553624510267e-13       1.924847117655e-16       2.624471200211e-11       4.593260932536e-12      -1.047071801271e-14 
   70       2.538958415234e-10       4.546756450555e-14      -8.159170869873e-13       1.981290649887e-16       2.534840203534e-11       4.457629931687e-12      -1.028826041864e-14 
   71       2.572403334113e-10       4.728134849125e-14      -8.780830270173e-13       2.038534896667e-16       2.449297717706e-11       4.328006881364e-12      -1.010662670226e-14 
   72       2.606189744735e-10       4.912360984488e-14      -9.418450631800e-13       2.096578505703e-16       2.367713686246e-11       4.204164126069e-12      -9.925895143283e-15 
   73       2.640315658323e-10       5.099346595664e-14      -1.007187524811e-12       2.155420123166e-16       2.289878008614e-11       4.085747695542e-12      -9.746047079674e-15 
   74       2.674773469520e-10       5.289000017254e-14      -1.074094335875e-12       2.215058396337e-16       2.215496796458e-11       3.972271414167e-12      -9.566961637634e-15 
   75       2.709549649208e-10       5.481226209556e-14      -1.142549072330e-12       2.275491976247e-16       2.144188629865e-11       3.863111010375e-12      -9.388410461639e-15 
   76       2.744630708048e-10       5.675919293251e-14      -1.212530428585e-12       2.336720351202e-16       2.075578778894e-11       3.757659604897e-12      -9.210485142871e-15 
   77       2.780023021591e-10       5.872938515188e-14      -1.283997535670e-12       2.398746517008e-16       2.009609979936e-11       3.655839931188e-12      -9.034981138883e-15 
   78       2.815736079090e-10       6.072127934217e-14      -1.356902057534e-12       2.461574800739e-16       1.946281792580e-11       3.557675252809e-12      -8.864257816357e-15 
   79       2.851776357806e-10       6.273323406246e-14      -1.431192508247e-12       2.525210092407e-16       1.885555955061e-11       3.463133731354e-12      -8.700831685503e-15 
   80       2.888147144418e-10       6.476352460668e-14      -1.506814215211e-12       2.589657864646e-16       1.827354649366e-11       3.372125845058e-12      -8.547380002912e-15 
   81       2.924848356433e-10       6.681034176792e-14      -1.583709282386e-12       2.654924192387e-16       1.771558766340e-11       3.284501807402e-12      -8.406744374407e-15 
   82       2.961876363597e-10       6.887179060265e-14      -1.661816553503e-12       2.721015772543e-16       1.718006170797e-11       3.200048985727e-12      -8.281934357895e-15 
   83       2.999223809304e-10       7.094588919496e-14      -1.741071575287e-12       2.787939943685e-16       1.666489966620e-11       3.118489319840e-12      -8.176131066221e-15 
   84       3.036883228657e-10       7.303065063399e-14      -1.821410170073e-12       2.855704027702e-16       1.616808503592e-11       3.039550714358e-12      -8.091703635420e-15 
   85       3.074858983005e-10       7.512434726742e-14      -1.902779914721e-12       2.924313186278e-16       1.568928723220e-11       2.963200468764e-12      -8.027063398134e-15 
   86       3.113156985661e-10       7.722528819362e-14      -1.985130506073e-12       2.993772243493e-16       1.522846837253e-11       2.889445992181e-12      -7.979292379673e-15 
   87       3.151780968077e-10       7.933174010392e-14      -2.068410344281e-12       3.064086340413e-16       1.478538141086e-11       2.818262951897e-12      -7.945071268082e-15 
   88       3.190732365057e-10       8.144192744547e-14      -2.152566556686e-12       3.135260943372e-16       1.435956148479e-11       2.749593935231e-12      -7.920666426499e-15 
   89       3.230010199985e-10       8.355403258400e-14      -2.237545021699e-12       3.207301852261e-16       1.395031726269e-11       2.683347111393e-12      -7.901916905508e-15 
   90       3.269610970035e-10       8.566619596663e-14      -2.323290392686e-12       3.280215208807e-16       1.355672229088e-11       2.619394893352e-12      -7.884221455493e-15 
   91       3.309528531398e-10       8.777651628467e-14      -2.409746121841e-12       3.354007504862e-16       1.317760634077e-11       2.557572599701e-12      -7.862525538995e-15 
   92       3.349753984497e-10       8.988305063645e-14      -2.496854484078e-12       3.428685590684e-16       1.281154675605e-11       2.497677116518e-12      -7.831308343069e-15 
   93       3.390278572684e-10       9.198383850471e-14      -2.584555827214e-12       3.504255725739e-16       1.245720436438e-11       2.439517762978e-12      -7.785863438493e-15 
   94       3.431103126344e-10       9.407697746038e-14      -2.672786141679e-12       3.580720549799e-16       1.211440779840e-11       2.383080545736e-12      -7.726389295626e-15 
   95       3.472229833576e-10       9.616055919864e-14      -2.761479167745e-12       3.658081669495e-16       1.178321701729e-11       2.328386249285e-12      -7.654492832193e-15 
   96       3.513659280843e-10       9.823264722198e-14      -2.850567149732e-12       3.736340570416e-16       1.146358940258e-11       2.275439820158e-12      -7.571955289307e-15 
   97       3.555390379560e-10       1.002912773298e-13      -2.939980849269e-12       3.815498612250e-16       1.115537583513e-11       2.224229745389e-12      -7.480737001496e-15 
   98       3.597420292677e-10       1.023344581084e-13      -3.029649558552e-12       3.895557023930e-16       1.085831677199e-11       2.174727430964e-12      -7.382982166741e-15 
   99       3.639744361264e-10       1.043601714201e-13      -3.119501113605e-12       3.976516898771e-16       1.057203832342e-11       2.126886580286e-12      -7.281023616503e-15 
  100       3.682356031096e-10       1.063663728936e-13      -3.209461907545e-12       4.058379189610e-16       1.029604832977e-11       2.080642572622e-12      -7.177387585763e-15 
  101       3.725246779237e-10       1.083509924132e-13      -3.299456903839e-12       4.141144703952e-16       1.002973243843e-11       2.035911841567e-12      -7.074798483050e-15 
  102       3.768406040627e-10       1.103119346090e-13      -3.389409649565e-12       4.224814099109e-16       9.772350180782e-12       1.992591253497e-12      -6.976183660478e-15 
  103       3.811821134664e-10       1.122470793458e-13      -3.479242288675e-12       4.309387877340e-16       9.523031049112e-12       1.950557486030e-12      -6.884678183777e-15 
  104       3.855479778444e-10       1.141543385105e-13      -3.568877003031e-12       4.394867741521e-16       9.280971063704e-12       1.909695050854e-12      -6.802927812608e-15 
  105       3.899378171252e-10       1.160318340523e-13      -3.658240528661e-12       4.481260881183e-16       9.046061164829e-12       1.869986012147e-12      -6.730880433802e-15 
  106       3.943513870384e-10       1.178777450178e-13      -3.747260277143e-12       4.568576259093e-16       8.818336788804e-12       1.831431285499e-12      -6.667703786767e-15 
  107       3.987883257571e-10       1.196902544966e-13      -3.835862990915e-12       4.656823312396e-16       8.597783258984e-12       1.794022772728e-12      -6.612457704947e-15 
