# dimensionless total lensed [l(l+1)/2pi] C_l's
# for l=2 to 2600, i.e. number of multipoles equal to 2599
#
# -> if you prefer output in CAMB/HealPix/LensPix units/order, set 'format' to 'camb' in input file
# -> if you don't want to see such a header, set 'headers' to 'no' in input file
# -> for CMB lensing (phi), these are C_l^phi-phi for the lensing potential.
#    Remember the conversion factors:
#    C_l^dd (deflection) = l(l+1) C_l^phi-phi
#    C_l^gg (shear/convergence) = 1/4 (l(l+1))^2 C_l^phi-phi
#
# 1:l     2:TT                     3:EE                     4:TE                     5:BB                     6:phiphi                 7:TPhi                   8:Ephi               
    2       1.386104931564e-10       4.797646412794e-15       4.232744195683e-13       2.270936832908e-19       7.985973945983e-09       4.024096785498e-10      -1.956678132863e-12 
    3       1.330279594920e-10       6.502722601608e-15       4.709027865201e-13       4.542063360093e-19       4.911772223974e-09       2.913582368909e-10      -1.554639240989e-12 
    4       1.273408189133e-10       5.990929981632e-15       4.421140991219e-13       7.570554226761e-19       3.400709106572e-09       2.241215961430e-10      -1.084496777065e-12 
    5       1.229131931706e-10       4.273736789390e-15       3.781817430484e-13       1.135673601935e-18       2.527450385287e-09       1.796546284931e-10      -6.627375324257e-13 
    6       1.198230552745e-10       2.518872093301e-15       3.039124393290e-13       1.590107618954e-18       1.964727246333e-09       1.480876154793e-10      -3.305645606257e-13 
    7       1.178727771572e-10       1.346409860196e-15       2.354877363771e-13       2.120421677917e-18       1.577593922314e-09       1.244132579192e-10      -1.002477353387e-13 
    8       1.167558871563e-10       7.835387812856e-16       1.813432962040e-13       2.726700951683e-18       1.299020141113e-09       1.061263991382e-10       3.461379272068e-14 
    9       1.163219742322e-10       5.788595435189e-16       1.442155929005e-13       3.409054981807e-18       1.090989698112e-09       9.182292009517e-11       9.167761267842e-14 
   10       1.164173930911e-10       4.969451189593e-16       1.229382957069e-13       4.167620716491e-18       9.306538691272e-10       8.049612486329e-11       9.407955835787e-14 
   11       1.168414889685e-10       4.342734721301e-16       1.144052207070e-13       5.002564941576e-18       7.876555475260e-10       7.210653928576e-11       6.672107960359e-14 
   12       1.175764586818e-10       3.861153096259e-16       1.144509171530e-13       5.914085880270e-18       6.869387386805e-10       6.397798414825e-11       2.741360044866e-14 
   13       1.185315119964e-10       3.704062111577e-16       1.192513650143e-13       6.902413770230e-18       6.043007289253e-10       5.733891632228e-11      -9.317039011297e-15 
   14       1.196748256916e-10       3.848687594289e-16       1.258972648781e-13       7.967810270362e-18       5.357174896413e-10       5.211280034068e-11      -3.412677911810e-14 
   15       1.209692520068e-10       4.097160353330e-16       1.325126888214e-13       9.110566602567e-18       4.789771871839e-10       4.762604482584e-11      -4.465973254330e-14 
   16       1.223736098501e-10       4.293402424877e-16       1.386210962863e-13       1.033100039309e-17       4.297471135753e-10       4.371923711986e-11      -4.290498441665e-14 
   17       1.239436552582e-10       4.454543106294e-16       1.443848272576e-13       1.162945124166e-17       3.883698578975e-10       4.002198865450e-11      -3.446156123332e-14 
   18       1.255691142298e-10       4.717043710804e-16       1.505747558830e-13       1.300627581853e-17       3.523733007137e-10       3.664922618077e-11      -2.436752782131e-14 
   19       1.272634773726e-10       5.181953142085e-16       1.572984844924e-13       1.446183769143e-17       3.209720344869e-10       3.369260364442e-11      -1.587495484144e-14 
   20       1.290392982634e-10       5.919124054176e-16       1.644112547232e-13       1.599650746969e-17       2.934778565549e-10       3.112013113370e-11      -1.166061637720e-14 
   21       1.308854934953e-10       6.885427923266e-16       1.722699018926e-13       1.761064515585e-17       2.694044378075e-10       2.895079916947e-11      -1.090392428814e-14 
   22       1.327563809656e-10       7.994218848527e-16       1.812590308244e-13       1.930460116558e-17       2.479428077484e-10       2.715361724001e-11      -1.126797968207e-14 
   23       1.346832481003e-10       9.234402158888e-16       1.908776835532e-13       2.107869942448e-17       2.288403437088e-10       2.555877014086e-11      -1.118924588228e-14 
   24       1.366936883393e-10       1.062392007987e-15       2.004635904322e-13       2.293323829170e-17       2.117854091441e-10       2.394746532491e-11      -9.387736294263e-15 
   25       1.387645932646e-10       1.220454035747e-15       2.106813148153e-13       2.486847563594e-17       1.965929027337e-10       2.236109971891e-11      -5.879554487088e-15 
   26       1.408462705537e-10       1.401547173484e-15       2.222295001987e-13       2.688462948985e-17       1.829543972712e-10       2.091869306002e-11      -1.249103283860e-15 
   27       1.429559434828e-10       1.602501637926e-15       2.333652180494e-13       2.898186787353e-17       1.706379302980e-10       1.968796377096e-11       3.630296599295e-15 
   28       1.451195857574e-10       1.818373457481e-15       2.417205479917e-13       3.116030965335e-17       1.593600877441e-10       1.869750946356e-11       7.765992516158e-15 
   29       1.473458377684e-10       2.050480510546e-15       2.471192394729e-13       3.342002568508e-17       1.490844796776e-10       1.788427319015e-11       1.067825726444e-14 
   30       1.496229975784e-10       2.302574704193e-15       2.502216010690e-13       3.576103123033e-17       1.397612940485e-10       1.712671581854e-11       1.201923513320e-14 
   31       1.519273478677e-10       2.578459169900e-15       2.518746031759e-13       3.818328919229e-17       1.312576499835e-10       1.630160478653e-11       1.152741855598e-14 
   32       1.542598527651e-10       2.879122998134e-15       2.527786753100e-13       4.068673791970e-17       1.235088582655e-10       1.543981994349e-11       9.424288482107e-15 
   33       1.566203146633e-10       3.204521928180e-15       2.537221030725e-13       4.327126704386e-17       1.164069692359e-10       1.462899635477e-11       6.183687430875e-15 
   34       1.590014583815e-10       3.554627146572e-15       2.553753176683e-13       4.593672198086e-17       1.098020481636e-10       1.394850872189e-11       2.392457425347e-15 
   35       1.614063597196e-10       3.930589034506e-15       2.572328139107e-13       4.868295774264e-17       1.036732062672e-10       1.337956406200e-11      -1.423095786568e-15 
   36       1.638353173939e-10       4.333978230626e-15       2.582846356782e-13       5.150979953869e-17       9.800872021783e-11       1.286229976351e-11      -4.668854704891e-15 
   37       1.662844330870e-10       4.766278570392e-15       2.575299056393e-13       5.441705372753e-17       9.277096291683e-11       1.233612884150e-11      -6.787960626851e-15 
   38       1.687596711029e-10       5.228174737548e-15       2.548419418592e-13       5.740460158696e-17       8.794387055022e-11       1.180187509532e-11      -7.805229793342e-15 
   39       1.712662617813e-10       5.720021565386e-15       2.503835704978e-13       6.047233536869e-17       8.349593219475e-11       1.127943829600e-11      -7.964199155084e-15 
   40       1.738042020907e-10       6.242021130906e-15       2.443809567584e-13       6.362013335407e-17       7.936406963327e-11       1.079129348183e-11      -7.588553408715e-15 
   41       1.763700641305e-10       6.794352401247e-15       2.370684206543e-13       6.684789102353e-17       7.547401877671e-11       1.035652566312e-11      -7.025229401635e-15 
   42       1.789645122437e-10       7.377636469687e-15       2.284910542919e-13       7.015562642310e-17       7.181585923871e-11       9.970350411756e-12      -6.437968393793e-15 
   43       1.815862642610e-10       7.992604888728e-15       2.186450087290e-13       7.354340934000e-17       6.838858714531e-11       9.618100184894e-12      -5.956000157739e-15 
   44       1.842295145274e-10       8.639971509384e-15       2.075315496831e-13       7.701133547230e-17       6.517813055612e-11       9.280409086097e-12      -5.732036566271e-15 
   45       1.868873013963e-10       9.320416557029e-15       1.951435325162e-13       8.055953944979e-17       6.216362767993e-11       8.938825578894e-12      -5.894038388282e-15 
   46       1.895637807415e-10       1.003453548031e-14       1.814196384851e-13       8.418823312962e-17       5.934104471666e-11       8.595391122044e-12      -6.380275562779e-15 
   47       1.922649211911e-10       1.078287315093e-14       1.662767218216e-13       8.789768265400e-17       5.670478173334e-11       8.258380946122e-12      -7.057154258979e-15 
   48       1.949948542064e-10       1.156593569629e-14       1.496216869353e-13       9.168820155609e-17       5.424028827835e-11       7.936912445683e-12      -7.762941518126e-15 
   49       1.977556799011e-10       1.238418866314e-14       1.313508562477e-13       9.556015367302e-17       5.192340716884e-11       7.640972669831e-12      -8.306205084114e-15 
   50       2.005478959885e-10       1.323802330569e-14       1.113690029443e-13       9.951392972494e-17       4.972740389161e-11       7.378877039717e-12      -8.518414791578e-15 
   51       2.033722723878e-10       1.412764892222e-14       8.965400634074e-14       1.035498627990e-16       4.764782662674e-11       7.148768512473e-12      -8.432198767284e-15 
   52       2.062281498039e-10       1.505316812028e-14       6.620865374647e-14       1.076682949599e-16       4.568325989281e-11       6.944858480561e-12      -8.148776011190e-15 
   53       2.091127001256e-10       1.601460288108e-14       4.104279571065e-14       1.118696032129e-16       4.382794116221e-11       6.759702694320e-12      -7.788988934425e-15 
   54       2.120207615675e-10       1.701189122312e-14       1.417363926364e-14       1.161542011773e-16       4.207146632457e-11       6.584107869103e-12      -7.494291969094e-15 
   55       2.149469848679e-10       1.804496167602e-14      -1.438336250216e-14       1.205224779864e-16       4.040203396047e-11       6.409292653036e-12      -7.392828089372e-15 
   56       2.178932739051e-10       1.911398601014e-14      -4.464516378311e-14       1.249745933762e-16       3.881779670794e-11       6.234213130036e-12      -7.485524911207e-15 
   57       2.208629047292e-10       2.021918344660e-14      -7.663757402828e-14       1.295106346237e-16       3.731781391509e-11       6.059893544074e-12      -7.733434046192e-15 
   58       2.238583032641e-10       2.136074804981e-14      -1.103865929974e-13       1.341306741065e-16       3.589860664319e-11       5.887325939798e-12      -8.089800538405e-15 
   59       2.268809704912e-10       2.253884842269e-14      -1.459184838955e-13       1.388347685306e-16       3.455400100582e-11       5.717464601910e-12      -8.499691262955e-15 
   60       2.299314076334e-10       2.375362740196e-14      -1.832598465079e-13       1.436229581589e-16       3.327497150799e-11       5.551220494523e-12      -8.899623324540e-15 
   61       2.330097195113e-10       2.500512190113e-14      -2.224306059272e-13       1.484952257156e-16       3.205215461115e-11       5.389382253207e-12      -9.231121822591e-15 
   62       2.361177521301e-10       2.629300210425e-14      -2.634209742587e-13       1.534513640698e-16       3.088440313720e-11       5.232371017475e-12      -9.485789953940e-15 
   63       2.392573043177e-10       2.761677292419e-14      -3.062094239672e-13       1.584910773470e-16       2.977188273327e-11       5.080420449934e-12      -9.669742004943e-15 
   64       2.424294396467e-10       2.897584590698e-14      -3.507691673253e-13       1.636140166209e-16       2.871350056976e-11       4.933637592854e-12      -9.790635654397e-15 
   65       2.456344331362e-10       3.036953639343e-14      -3.970680047644e-13       1.688197778617e-16       2.770683340373e-11       4.791994977110e-12      -9.857742340356e-15 
   66       2.488717179529e-10       3.179706068070e-14      -4.450681732276e-13       1.741078998851e-16       2.674805564229e-11       4.655322731123e-12      -9.882017626962e-15 
   67       2.521398321129e-10       3.325753318393e-14      -4.947261945206e-13       1.794778623005e-16       2.583186740599e-11       4.523300689797e-12      -9.876171571260e-15 
   68       2.554372327064e-10       3.475005863159e-14      -5.460019520576e-13       1.849291620706e-16       2.495291763781e-11       4.395587040022e-12      -9.851997794947e-15 
   69       2.587650492941e-10       3.627403668925e-14      -5.988883957790e-13       1.904615657877e-16       2.411056907901e-11       4.272252165557e-12      -9.811574955332e-15 
   70       2.621247952372e-10       3.782891424522e-14      -6.533876114596e-13       1.960749050651e-16       2.330497400894e-11       4.153418938609e-12      -9.754400679416e-15 
   71       2.655175189837e-10       3.941409543757e-14      -7.095022077333e-13       2.017690024088e-16       2.253563153132e-11       4.039129641152e-12      -9.679975368791e-15 
   72       2.689437729570e-10       4.102894124632e-14      -7.672354004652e-13       2.075436711767e-16       2.180135387405e-11       3.929341565854e-12      -9.587802456611e-15 
   73       2.724035824447e-10       4.267276908555e-14      -8.265910971238e-13       2.133987155381e-16       2.110023268905e-11       3.823922617000e-12      -9.477388664570e-15 
   74       2.758964144874e-10       4.434485239554e-14      -8.875739811532e-13       2.193339304323e-16       2.042960535215e-11       3.722646911412e-12      -9.348244259871e-15 
   75       2.794211467673e-10       4.604442023492e-14      -9.501895963454e-13       2.253491015282e-16       1.978602126290e-11       3.625190379376e-12      -9.199883312211e-15 
   76       2.829766389421e-10       4.777062336299e-14      -1.014436259730e-12       2.314441122550e-16       1.916610096984e-11       3.531208395324e-12      -9.032514174976e-15 
   77       2.865636356993e-10       4.952242624783e-14      -1.080278911186e-12       2.376192875195e-16       1.856936890995e-11       3.440594737471e-12      -8.849255725284e-15 
   78       2.901831558228e-10       5.129869453288e-14      -1.147670626315e-12       2.438751128841e-16       1.799587840651e-11       3.353262077880e-12      -8.654327610524e-15 
   79       2.938359020795e-10       5.309822572237e-14      -1.216560283028e-12       2.502121351757e-16       1.744534952697e-11       3.269061468960e-12      -8.452410054612e-15 
   80       2.975222424617e-10       5.491974808634e-14      -1.286892478360e-12       2.566309646398e-16       1.691715369099e-11       3.187779626478e-12      -8.248658268578e-15 
   81       3.012421914301e-10       5.676191956560e-14      -1.358607445276e-12       2.631322770956e-16       1.641029827831e-11       3.109136212569e-12      -8.048716861143e-15 
   82       3.049953911552e-10       5.862332667676e-14      -1.431640969480e-12       2.697168160905e-16       1.592341123675e-11       3.032781118742e-12      -7.858734249304e-15 
   83       3.087810927604e-10       6.050248341719e-14      -1.505924306229e-12       2.763853950552e-16       1.545472569014e-11       2.958291748895e-12      -7.685377068913e-15 
   84       3.125985489148e-10       6.239788366089e-14      -1.581390688049e-12       2.831388174783e-16       1.500251262089e-11       2.885297797736e-12      -7.534408202064e-15 
   85       3.164483074805e-10       6.430817072475e-14      -1.657996269704e-12       2.899776175073e-16       1.456649504928e-11       2.813885304877e-12      -7.406118441275e-15 
   86       3.203310989305e-10       6.623199403586e-14      -1.735702519080e-12       2.969022800955e-16       1.414664116462e-11       2.744254914325e-12      -7.299160391870e-15 
   87       3.242474323963e-10       6.816795794683e-14      -1.814469962167e-12       3.039133199239e-16       1.374272934959e-11       2.676599768926e-12      -7.211907932701e-15 
   88       3.281975838236e-10       7.011462153983e-14      -1.894258210640e-12       3.110112821776e-16       1.335434031891e-11       2.611104936159e-12      -7.142446485843e-15 
   89       3.321815841284e-10       7.207049843058e-14      -1.975025989439e-12       3.181967433232e-16       1.298084925791e-11       2.547946833922e-12      -7.088563286276e-15 
   90       3.361992073520e-10       7.403405657233e-14      -2.056731164350e-12       3.254703118855e-16       1.262141796118e-11       2.487292656322e-12      -7.047737651574e-15 
   91       3.402499588179e-10       7.600371805986e-14      -2.139330769589e-12       3.328326292244e-16       1.227498697119e-11       2.429299799470e-12      -7.017131251593e-15 
   92       3.443330632868e-10       7.797785893351e-14      -2.222781035379e-12       3.402843703119e-16       1.194026771687e-11       2.374115287265e-12      -6.993578378159e-15 
   93       3.484477507143e-10       7.995483181688e-14      -2.307035581614e-12       3.478261251750e-16       1.161604853701e-11       2.321834895571e-12      -6.974113593677e-15 
   94       3.525941884127e-10       8.193303815042e-14      -2.392039628174e-12       3.554580211411e-16       1.130218247463e-11       2.272374739554e-12      -6.957666589872e-15 
   95       3.567726678401e-10       8.391086651001e-14      -2.477734960781e-12       3.631800449502e-16       1.099873420335e-11       2.225579221547e-12      -6.943605431647e-15 
   96       3.609833118351e-10       8.588667085696e-14      -2.564061689708e-12       3.709921561773e-16       1.070567587482e-11       2.181258499501e-12      -6.931219568601e-15 
   97       3.652260668584e-10       8.785877065555e-14      -2.650958252189e-12       3.788942863708e-16       1.042288356608e-11       2.139187359561e-12      -6.919717481236e-15 
   98       3.695006952329e-10       8.982545099038e-14      -2.738361414818e-12       3.868863381916e-16       1.015013372675e-11       2.099104088641e-12      -6.908224327151e-15 
   99       3.738067673854e-10       9.178496268386e-14      -2.826206275965e-12       3.949681845519e-16       9.887099626321e-12       2.060709347002e-12      -6.895779587246e-15 
  100       3.781436540871e-10       9.373552241361e-14      -2.914426268176e-12       4.031396677538e-16       9.633347801427e-12       2.023665040830e-12      -6.881334711917e-15 
  101       3.825105186944e-10       9.567531282988e-14      -3.002953160585e-12       4.114005986285e-16       9.388334503089e-12       1.987593194806e-12      -6.863750767261e-15 
  102       3.869063093906e-10       9.760248267305e-14      -3.091717061319e-12       4.197507556750e-16       9.151402143993e-12       1.952074824689e-12      -6.841796081272e-15 
  103       3.913297514257e-10       9.951514689098e-14      -3.180646419905e-12       4.281898841989e-16       8.921775745740e-12       1.916648809889e-12      -6.814143890044e-15 
  104       3.957796296844e-10       1.014114372616e-13      -3.269669641672e-12       4.367178772090e-16       8.698739136126e-12       1.880919284162e-12      -6.779689027441e-15 
  105       4.002556965697e-10       1.032896617958e-13      -3.358720174146e-12       4.453353477921e-16       8.482198300257e-12       1.844896757643e-12      -6.738551785328e-15 
  106       4.047578728668e-10       1.051481671867e-13      -3.447732115441e-12       4.540431328127e-16       8.272187860908e-12       1.808701188104e-12      -6.691205903359e-15 
  107       4.092859638551e-10       1.069852908917e-13      -3.536638683494e-12       4.628421191815e-16       8.068696565753e-12       1.772457642072e-12      -6.638172773283e-15 
