# Matter power spectrum P(k) at redshift z=0
# for k=1.07209e-05 to 1.4771 h/Mpc,
# number of wavenumbers equal to 611
#    1:k (h/Mpc)              2:P (Mpc/h)^3        
       1.072086077628e-05       4.852918444344e+01 
       2.407119303778e-05       1.061144646733e+02 
       3.747163567609e-05       1.628084502575e+02 
       5.096092499847e-05       2.191894278216e+02 
       6.457848213963e-05       2.755963341443e+02 
       7.836479054482e-05       3.322896383685e+02 
       9.236178633398e-05       3.894965007926e+02 
       1.066132670930e-04       4.474805617935e+02 
       1.211653246775e-04       5.063539032667e+02 
       1.360668076501e-04       5.663695763885e+02 
       1.513698189575e-04       6.277414972201e+02 
       1.671302543377e-04       6.906923126793e+02 
       1.834083866396e-04       7.554563785908e+02 
       2.002695006311e-04       8.222825216654e+02 
       2.177845818126e-04       8.914463196473e+02 
       2.360310610395e-04       9.632163339029e+02 
       2.550936141165e-04       1.037908668838e+03 
       2.750650116283e-04       1.115856480789e+03 
       2.960470086803e-04       1.197420381868e+03 
       3.181512564428e-04       1.282990753924e+03 
       3.415002068705e-04       1.372989738251e+03 
       3.662279681320e-04       1.467872709945e+03 
       3.924810507138e-04       1.568128972702e+03 
       4.204189227116e-04       1.674272842552e+03 
       4.502142679986e-04       1.786874236571e+03 
       4.820528143049e-04       1.906491194337e+03 
       5.161325729183e-04       2.034121609361e+03 
       5.526623130176e-04       2.169604535687e+03 
       5.918590894276e-04       2.313997848760e+03 
       6.339446629662e-04       2.468026779590e+03 
       6.791407086967e-04       2.631930101293e+03 
       7.276628085384e-04       2.806304705146e+03 
       7.797133735227e-04       2.991831726325e+03 
       8.354738279861e-04       3.188353796891e+03 
       8.950965869838e-04       3.396393507936e+03 
       9.586975262963e-04       3.615817502938e+03 
       1.026349729727e-03       3.846422815804e+03 
       1.098079256074e-03       4.087868160041e+03 
       1.173863479988e-03       4.339885306513e+03 
       1.253632249724e-03       4.601381326855e+03 
       1.337271733807e-03       4.872043607300e+03 
       1.424630482831e-03       5.150819525909e+03 
       1.477104874446e-03       5.316427228609e+03 
       1.515526989588e-03       5.436837292673e+03 
       1.609757933829e-03       5.729169963919e+03 
       1.707106346376e-03       6.026816466602e+03 
       1.807349083104e-03       6.328889915088e+03 
       1.910263207615e-03       6.634515754992e+03 
       2.015631090313e-03       6.942841797094e+03 
       2.123244205146e-03       7.252896112333e+03 
       2.232905727237e-03       7.564295823943e+03 
       2.344432104515e-03       7.876261947311e+03 
       2.457653803547e-03       8.188238079659e+03 
       2.572415426799e-03       8.499700749338e+03 
       2.688575377732e-03       8.810064641306e+03 
       2.806005221107e-03       9.119020246753e+03 
       2.924588855219e-03       9.426202997986e+03 
       3.044221584318e-03       9.731289703682e+03 
       3.164809155230e-03       1.003403324961e+04 
       3.286266802434e-03       1.033419876668e+04 
       3.408518330728e-03       1.063158997106e+04 
       3.531495253181e-03       1.092609041028e+04 
       3.655135993907e-03       1.121730181683e+04 
       3.779385159479e-03       1.150538394952e+04 
       3.904192878937e-03       1.179010520539e+04 
       4.029514209886e-03       1.207135181939e+04 
       4.155308606718e-03       1.234908312421e+04 
       4.281539446186e-03       1.262312614163e+04 
       4.408173605264e-03       1.289348083724e+04 
       4.535181086223e-03       1.316014582566e+04 
       4.662534684024e-03       1.342298578730e+04 
       4.790209691467e-03       1.368191269997e+04 
       4.918183637863e-03       1.393710102943e+04 
       5.046436057402e-03       1.418842282703e+04 
       5.174948283779e-03       1.443657920677e+04 
       5.303703267983e-03       1.468011336967e+04 
       5.432685416533e-03       1.491939130571e+04 
       5.561880447717e-03       1.515532571186e+04 
       5.691275263723e-03       1.538744085448e+04 
       5.820857836768e-03       1.561648710468e+04 
       5.950617107575e-03       1.584101352501e+04 
       6.080542894756e-03       1.606163245492e+04 
       6.210625813821e-03       1.627865439733e+04 
       6.340857204694e-03       1.649228200866e+04 
       6.471229066769e-03       1.670178753132e+04 
       6.601734000634e-03       1.690762929669e+04 
       6.732365155712e-03       1.710982358642e+04 
       6.863116183157e-03       1.730840308628e+04 
       6.993981193424e-03       1.750340789247e+04 
       7.124954717990e-03       1.769486094233e+04 
       7.256031674787e-03       1.788279901799e+04 
       7.387207336933e-03       1.806712967611e+04 
       7.518477304430e-03       1.824807240963e+04 
       7.649837478489e-03       1.842554111453e+04 
       7.781284038238e-03       1.859961084399e+04 
       7.912813419541e-03       1.877029905512e+04 
       8.044422295731e-03       1.893764437418e+04 
       8.176107560060e-03       1.910150696716e+04 
       8.307866309687e-03       1.926261191001e+04 
       8.439695831060e-03       1.942007663985e+04 
       8.571593586561e-03       1.957683978098e+04 
       8.703557202277e-03       1.972844811878e+04 
       8.835584456806e-03       1.987773437579e+04 
       8.967673270992e-03       2.002267669716e+04 
       9.099821698500e-03       2.016436776922e+04 
       9.232027917167e-03       2.030368236477e+04 
       9.364290221039e-03       2.043908604366e+04 
       9.496607013054e-03       2.057202759406e+04 
       9.628976798291e-03       2.070206988413e+04 
       9.761398177759e-03       2.082866367658e+04 
       9.893869842656e-03       2.095208329626e+04 
       1.002639056907e-02       2.107387012042e+04 
       1.015895921311e-02       2.119120153104e+04 
       1.029157470635e-02       2.130633792947e+04 
       1.042423605164e-02       2.142063742068e+04 
       1.055694231929e-02       2.153066892175e+04 
       1.068969264341e-02       2.163763049668e+04 
       1.082248621862e-02       2.174197174609e+04 
       1.095532229696e-02       2.184336234607e+04 
       1.108820018504e-02       2.194242235907e+04 
       1.122111924136e-02       2.203886380163e+04 
       1.135407887385e-02       2.213498178798e+04 
       1.148707853761e-02       2.222644717690e+04 
       1.162011773275e-02       2.231615371361e+04 
       1.175319600241e-02       2.240262814711e+04 
       1.188631293095e-02       2.248643929307e+04 
       1.201946814223e-02       2.256888308559e+04 
       1.215266129801e-02       2.264812831773e+04 
       1.228589209649e-02       2.272606290654e+04 
       1.241916027095e-02       2.280059817824e+04 
       1.255246558843e-02       2.287280214987e+04 
       1.268580784860e-02       2.294427508780e+04 
       1.281918688265e-02       2.301190930195e+04 
       1.295260255223e-02       2.307729589432e+04 
       1.308605474856e-02       2.314210815690e+04 
       1.321954339151e-02       2.320320973295e+04 
       1.335306842881e-02       2.326213694107e+04 
       1.348662983532e-02       2.331894040942e+04 
       1.362022761228e-02       2.337483369390e+04 
       1.375386178673e-02       2.342762134002e+04 
       1.388753241088e-02       2.347843709054e+04 
       1.402123956160e-02       2.352778388024e+04 
       1.415498333990e-02       2.357451395578e+04 
       1.428876387051e-02       2.361886580499e+04 
       1.442258130143e-02       2.366107854251e+04 
       1.455643580358e-02       2.370210144127e+04 
       1.469032757046e-02       2.374158152128e+04 
       1.477104874446e-02       2.376385070079e+04 
       1.482425681785e-02       2.377846155360e+04 
       1.495822378353e-02       2.381459065533e+04 
       1.509222872706e-02       2.384748701038e+04 
       1.522627192956e-02       2.388040014036e+04 
       1.536035369353e-02       2.390967556746e+04 
       1.549447434271e-02       2.393719394404e+04 
       1.562863422194e-02       2.396290246572e+04 
       1.576283369709e-02       2.398688620222e+04 
       1.589707315493e-02       2.401056340138e+04 
       1.603135300315e-02       2.403156947930e+04 
       1.616567367026e-02       2.405096353731e+04 
       1.630003560565e-02       2.406839639417e+04 
       1.643443927955e-02       2.408510393543e+04 
       1.656888518310e-02       2.410004210809e+04 
       1.670337382839e-02       2.411239116170e+04 
       1.683790574853e-02       2.412288755658e+04 
       1.697248149777e-02       2.413300342274e+04 
       1.710710165160e-02       2.414099681327e+04 
       1.724176680687e-02       2.414721373031e+04 
       1.737647758194e-02       2.415318234528e+04 
       1.751123461688e-02       2.415741598051e+04 
       1.764603857362e-02       2.415933911106e+04 
       1.778089013617e-02       2.415975598508e+04 
       1.791579001084e-02       2.415982877701e+04 
       1.805073892647e-02       2.415709362425e+04 
       1.818573763470e-02       2.415386068125e+04 
       1.832078691021e-02       2.414957811137e+04 
       1.845588755104e-02       2.414293574276e+04 
       1.859104037888e-02       2.413534720288e+04 
       1.872624623940e-02       2.412683100421e+04 
       1.886150600257e-02       2.411631763319e+04 
       1.899682056305e-02       2.410458152447e+04 
       1.913219084051e-02       2.409222529776e+04 
       1.926761778009e-02       2.407776520881e+04 
       1.940310235272e-02       2.406290558960e+04 
       1.953864555563e-02       2.404696001844e+04 
       1.967424841273e-02       2.402953776834e+04 
       1.980991197510e-02       2.401124840190e+04 
       1.994563732147e-02       2.399201997565e+04 
       2.008142555868e-02       2.397072970318e+04 
       2.021727782225e-02       2.394935180237e+04 
       2.035319527685e-02       2.392700112612e+04 
       2.048917911690e-02       2.390261312545e+04 
       2.062523056714e-02       2.387915448119e+04 
       2.076135088319e-02       2.385266166067e+04 
       2.089754135217e-02       2.382588307060e+04 
       2.103380329337e-02       2.379701431088e+04 
       2.117013805885e-02       2.376800940939e+04 
       2.130654703416e-02       2.373799162391e+04 
       2.144303163901e-02       2.370660343147e+04 
       2.157959332799e-02       2.367474501025e+04 
       2.171623359134e-02       2.364127272937e+04 
       2.185295395567e-02       2.360784496132e+04 
       2.198975598482e-02       2.357260930652e+04 
       2.212664128060e-02       2.353653363732e+04 
       2.226361148369e-02       2.350068054372e+04 
       2.240066827448e-02       2.346321291707e+04 
       2.253781337398e-02       2.342467993411e+04 
       2.267504854472e-02       2.338512063747e+04 
       2.281237559174e-02       2.334628437112e+04 
       2.294979636356e-02       2.330548006884e+04 
       2.308731275315e-02       2.326364796983e+04 
       2.322492669905e-02       2.322095655638e+04 
       2.336264018638e-02       2.317851223158e+04 
       2.350045524800e-02       2.313521342394e+04 
       2.363837396562e-02       2.309009120866e+04 
       2.377639847100e-02       2.304543627800e+04 
       2.391453094715e-02       2.299933251498e+04 
       2.405277362962e-02       2.295242017731e+04 
       2.419112880775e-02       2.290525929670e+04 
       2.432959882604e-02       2.285716921491e+04 
       2.446818608552e-02       2.280847361546e+04 
       2.460689304516e-02       2.275949789498e+04 
       2.474572222336e-02       2.270935999868e+04 
       2.488467619942e-02       2.265932357677e+04 
       2.502375761516e-02       2.260765108132e+04 
       2.516296917648e-02       2.255589357916e+04 
       2.530231365505e-02       2.250387215418e+04 
       2.544179389003e-02       2.245098541885e+04 
       2.558141278982e-02       2.239847837301e+04 
       2.572117333390e-02       2.234447456743e+04 
       2.586107857475e-02       2.229011380918e+04 
       2.600113163976e-02       2.223507868233e+04 
       2.614133573326e-02       2.217947737012e+04 
       2.628169413863e-02       2.212380867011e+04 
       2.642221022041e-02       2.206735791341e+04 
       2.656288742656e-02       2.201019142800e+04 
       2.670372929076e-02       2.195288316170e+04 
       2.684473943477e-02       2.189467449785e+04 
       2.698592157090e-02       2.183710721973e+04 
       2.712727950458e-02       2.177714965887e+04 
       2.726881713695e-02       2.171844913363e+04 
       2.741053846761e-02       2.165896098351e+04 
       2.755244759747e-02       2.159895821367e+04 
       2.769454873161e-02       2.153864005648e+04 
       2.783684618235e-02       2.147843354983e+04 
       2.797934437237e-02       2.141741681136e+04 
       2.812204783794e-02       2.135626745293e+04 
       2.826496123232e-02       2.129462722959e+04 
       2.840808932921e-02       2.123247345387e+04 
       2.855143702638e-02       2.117041523074e+04 
       2.869500934941e-02       2.110802154793e+04 
       2.883881145559e-02       2.104506820847e+04 
       2.898284863793e-02       2.098166699412e+04 
       2.912712632938e-02       2.091850805722e+04 
       2.927165010713e-02       2.085454150962e+04 
       2.941642569716e-02       2.079044306760e+04 
       2.956145897891e-02       2.072635894946e+04 
       2.970675599013e-02       2.066194141213e+04 
       2.985232293198e-02       2.059732300522e+04 
       2.999816617425e-02       2.053222860804e+04 
       3.014429226085e-02       2.046697542808e+04 
       3.029070791550e-02       2.040150409475e+04 
       3.043742004763e-02       2.033552237625e+04 
       3.058443575854e-02       2.026973966429e+04 
       3.073176234786e-02       2.020356415393e+04 
       3.087940732018e-02       2.013769488052e+04 
       3.102737839200e-02       2.007122763319e+04 
       3.117568349905e-02       2.000453637418e+04 
       3.132433080380e-02       1.993799656728e+04 
       3.147332870334e-02       1.987091407331e+04 
       3.162268583764e-02       1.980380793032e+04 
       3.177241109813e-02       1.973633020036e+04 
       3.192251363667e-02       1.966885665513e+04 
       3.207300287487e-02       1.960149997476e+04 
       3.222388851394e-02       1.953390641622e+04 
       3.237518054489e-02       1.946608056023e+04 
       3.252688925922e-02       1.939809845404e+04 
       3.267902526009e-02       1.933009921314e+04 
       3.283159947409e-02       1.926219617293e+04 
       3.298462316342e-02       1.919385413344e+04 
       3.313810793878e-02       1.912558078899e+04 
       3.329206577282e-02       1.905701053920e+04 
       3.344650901423e-02       1.898883255175e+04 
       3.360145040252e-02       1.892017368967e+04 
       3.375690308357e-02       1.885147267259e+04 
       3.391288062591e-02       1.878276949220e+04 
       3.406939703781e-02       1.871383780054e+04 
       3.422646678529e-02       1.864513188032e+04 
       3.438410481102e-02       1.857607737050e+04 
       3.454232655415e-02       1.850730803321e+04 
       3.470114797131e-02       1.843824299035e+04 
       3.486058555856e-02       1.836885172940e+04 
       3.502065637465e-02       1.829986599136e+04 
       3.518137806543e-02       1.823056891500e+04 
       3.534276888967e-02       1.816132130213e+04 
       3.550484774627e-02       1.809208445357e+04 
       3.566763420300e-02       1.802275188543e+04 
       3.583114852682e-02       1.795356704956e+04 
       3.599541171599e-02       1.788430253532e+04 
       3.616044553400e-02       1.781485034187e+04 
       3.632627254547e-02       1.774537909950e+04 
       3.649291615422e-02       1.767611034291e+04 
       3.666040064352e-02       1.760673307027e+04 
       3.682875121887e-02       1.753719646911e+04 
       3.699799405331e-02       1.746754053395e+04 
       3.716815633564e-02       1.739806892010e+04 
       3.733926632150e-02       1.732874301818e+04 
       3.751135338786e-02       1.725910862626e+04 
       3.768444809090e-02       1.718942838729e+04 
       3.785858222766e-02       1.711994193187e+04 
       3.803378890178e-02       1.705012039845e+04 
       3.821010259361e-02       1.698060172651e+04 
       3.838755923507e-02       1.691100232956e+04 
       3.856619628958e-02       1.684126132740e+04 
       3.874605283755e-02       1.677151064418e+04 
       3.892716966799e-02       1.670177433058e+04 
       3.910958937642e-02       1.663210271948e+04 
       3.929335647009e-02       1.656245035168e+04 
       3.947851748074e-02       1.649289792737e+04 
       3.966512108580e-02       1.642318939271e+04 
       3.985321823876e-02       1.635325305259e+04 
       4.004286230940e-02       1.628326576570e+04 
       4.023410923501e-02       1.621359685101e+04 
       4.042701768350e-02       1.614374391131e+04 
       4.062164922944e-02       1.607376013775e+04 
       4.081806854459e-02       1.600364021297e+04 
       4.101634360393e-02       1.593352834268e+04 
       4.121654590914e-02       1.586358038658e+04 
       4.141875073096e-02       1.579344726093e+04 
       4.162303737257e-02       1.572321960229e+04 
       4.182948945619e-02       1.565309370273e+04 
       4.203819523519e-02       1.558274533824e+04 
       4.224924793472e-02       1.551224929158e+04 
       4.246274612376e-02       1.544181061667e+04 
       4.267879412227e-02       1.537125612193e+04 
       4.289750244738e-02       1.530040519983e+04 
       4.311898830307e-02       1.522970167183e+04 
       4.334337611860e-02       1.515889976618e+04 
       4.357079814150e-02       1.508782981041e+04 
       4.380139509166e-02       1.501652214499e+04 
       4.403531688444e-02       1.494531196850e+04 
       4.427272343125e-02       1.487378887462e+04 
       4.451378552789e-02       1.480206452219e+04 
       4.475868584209e-02       1.473027263247e+04 
       4.500762001380e-02       1.465827693544e+04 
       4.526079788360e-02       1.458592925889e+04 
       4.551844486739e-02       1.451350163510e+04 
       4.578080349828e-02       1.444073045012e+04 
       4.604813516035e-02       1.436772675402e+04 
       4.632072204297e-02       1.429442770596e+04 
       4.659886934955e-02       1.422079254805e+04 
       4.688290780084e-02       1.414674097381e+04 
       4.717319647984e-02       1.407232881926e+04 
       4.747012607483e-02       1.399753855215e+04 
       4.777412258730e-02       1.392258233392e+04 
       4.808565158540e-02       1.384687736364e+04 
       4.840522309901e-02       1.377081041091e+04 
       4.873339727320e-02       1.369410471591e+04 
       4.907079092095e-02       1.361679980988e+04 
       4.941808514670e-02       1.353899910520e+04 
       4.977603425061e-02       1.346037458693e+04 
       5.014547617059e-02       1.338107595108e+04 
       5.052734477939e-02       1.330096749308e+04 
       5.092268442925e-02       1.321999159695e+04 
       5.133266723200e-02       1.313800280571e+04 
       5.175861368398e-02       1.305501992383e+04 
       5.220201739885e-02       1.297069272669e+04 
       5.266457490829e-02       1.288526160391e+04 
       5.314822174103e-02       1.279837108510e+04 
       5.365517630886e-02       1.270989674481e+04 
       5.418799353230e-02       1.261959946130e+04 
       5.474963064299e-02       1.252735250620e+04 
       5.534352822177e-02       1.243286885562e+04 
       5.597371027049e-02       1.233570298672e+04 
       5.664490794419e-02       1.223598387650e+04 
       5.736271238561e-02       1.213251257312e+04 
       5.813376265374e-02       1.202505457053e+04 
       5.896597446361e-02       1.191274723353e+04 
       5.986881320263e-02       1.179472334911e+04 
       6.085360821046e-02       1.166975935669e+04 
       6.193389044229e-02       1.153626404548e+04 
       6.312570526285e-02       1.139202795096e+04 
