# dimensionless total [l(l+1)/2pi] C_l's
# for l=2 to 3100, i.e. number of multipoles equal to 3099
#
# -> if you prefer output in CAMB/HealPix/LensPix units/order, set 'format' to 'camb' in input file
# -> if you don't want to see such a header, set 'headers' to 'no' in input file
# -> for CMB lensing (phi), these are C_l^phi-phi for the lensing potential.
#    Remember the conversion factors:
#    C_l^dd (deflection) = l(l+1) C_l^phi-phi
#    C_l^gg (shear/convergence) = 1/4 (l(l+1))^2 C_l^phi-phi
#
# 1:l     2:TT                     3:EE                     4:TE                     5:BB                     6:phiphi                 7:TPhi                   8:Ephi               
    2       1.286887135209e-10       3.924654757706e-15       4.818483011048e-13       0.000000000000e+00       7.930160988806e-09       1.519346879657e-10      -1.857875212416e-12 
    3       1.220491271240e-10       5.446394415284e-15       5.147349684443e-13       0.000000000000e+00       4.995699986988e-09       1.200568038723e-10      -1.490871769851e-12 
    4       1.164369827728e-10       5.218635541422e-15       4.685167751916e-13       0.000000000000e+00       3.519245305963e-09       9.563970783790e-11      -1.069622943309e-12 
    5       1.125677448317e-10       3.901439871305e-15       3.911513413557e-13       0.000000000000e+00       2.651593495250e-09       7.758640592481e-11      -6.906397255141e-13 
    6       1.101072837369e-10       2.403826910398e-15       3.084785253554e-13       0.000000000000e+00       2.086888255561e-09       6.403146259045e-11      -3.857179607053e-13 
    7       1.087373637871e-10       1.305100907617e-15       2.352332809475e-13       0.000000000000e+00       1.695454369883e-09       5.362711439592e-11      -1.646625379194e-13 
    8       1.081520432859e-10       7.220006443505e-16       1.779504226773e-13       0.000000000000e+00       1.410961669921e-09       4.555394798067e-11      -2.365236275383e-14 
    9       1.081155064862e-10       4.945804778020e-16       1.382630868828e-13       0.000000000000e+00       1.195942150180e-09       3.924484815993e-11       4.932308175064e-14 
   10       1.085364354737e-10       4.181703075581e-16       1.147316099046e-13       0.000000000000e+00       1.028467092792e-09       3.421290280026e-11       7.082010011979e-14 
   11       1.092501490192e-10       3.720611814938e-16       1.042782381989e-13       0.000000000000e+00       8.641961843225e-10       3.056097623856e-11       5.912657615876e-14 
   12       1.101682431145e-10       3.282640678680e-16       1.033012638708e-13       0.000000000000e+00       7.585958798348e-10       2.675985501523e-11       3.020203690353e-14 
   13       1.113451486933e-10       3.005627948865e-16       1.083063247261e-13       0.000000000000e+00       6.715719920794e-10       2.380845079141e-11      -2.010284024882e-15 
   14       1.126181396982e-10       2.988112648198e-16       1.163447090536e-13       0.000000000000e+00       5.989099664594e-10       2.145674668913e-11      -2.860106771122e-14 
   15       1.140263538562e-10       3.162712048560e-16       1.253651043830e-13       0.000000000000e+00       5.375366683250e-10       1.926927085297e-11      -4.520664265182e-14 
   16       1.155199855139e-10       3.405570943925e-16       1.342325157644e-13       0.000000000000e+00       4.851753611783e-10       1.737054363684e-11      -5.069718597209e-14 
   17       1.171074065091e-10       3.666766913646e-16       1.424843876074e-13       0.000000000000e+00       4.401093682238e-10       1.570893965910e-11      -4.699835175756e-14 
   18       1.187563922779e-10       4.001003159601e-16       1.502138158612e-13       0.000000000000e+00       4.008683812029e-10       1.428946017530e-11      -3.766944095909e-14 
   19       1.204711681882e-10       4.480825616269e-16       1.577856445054e-13       0.000000000000e+00       3.668722151343e-10       1.308548859022e-11      -2.602811775835e-14 
   20       1.222233371581e-10       5.173846103655e-16       1.656776237495e-13       0.000000000000e+00       3.368403373644e-10       1.201184477706e-11      -1.573163835777e-14 
   21       1.240254515223e-10       6.081597855829e-16       1.742294653722e-13       0.000000000000e+00       3.103244296782e-10       1.105116140703e-11      -8.554476505856e-15 
   22       1.258727124823e-10       7.177040969039e-16       1.836739454040e-13       0.000000000000e+00       2.867130730368e-10       1.019510553459e-11      -5.426751636055e-15 
   23       1.277641661776e-10       8.448484057982e-16       1.938547551379e-13       0.000000000000e+00       2.656973187786e-10       9.446446812146e-12      -5.910986876556e-15 
   24       1.296798769504e-10       9.886916811790e-16       2.044174167799e-13       0.000000000000e+00       2.468064818644e-10       8.796498713963e-12      -8.819280045595e-15 
   25       1.316215418396e-10       1.149438931931e-15       2.150234413251e-13       0.000000000000e+00       2.298302888945e-10       8.209473448397e-12      -1.285443952416e-14 
   26       1.335835041663e-10       1.327367748113e-15       2.252848809556e-13       0.000000000000e+00       2.144734391031e-10       7.641566110969e-12      -1.654640778038e-14 
   27       1.355687428650e-10       1.521969169172e-15       2.348316727356e-13       0.000000000000e+00       2.005601796473e-10       7.111040381271e-12      -1.895019657201e-14 
   28       1.375735938104e-10       1.732707310245e-15       2.433183847447e-13       0.000000000000e+00       1.878587962079e-10       6.649352796814e-12      -1.938852080728e-14 
   29       1.396055038727e-10       1.961052949893e-15       2.506727110464e-13       0.000000000000e+00       1.763098575912e-10       6.253253815118e-12      -1.807656773162e-14 
   30       1.416632501609e-10       2.209371988468e-15       2.569346852485e-13       0.000000000000e+00       1.657948832013e-10       5.901689747757e-12      -1.565291416078e-14 
   31       1.437354742842e-10       2.480141574125e-15       2.621836557015e-13       0.000000000000e+00       1.561060689275e-10       5.569579891587e-12      -1.288163860025e-14 
   32       1.458269342211e-10       2.774778122023e-15       2.665116945459e-13       0.000000000000e+00       1.471971890485e-10       5.252767673562e-12      -1.026755960505e-14 
   33       1.479394896391e-10       3.094376818386e-15       2.700460253270e-13       0.000000000000e+00       1.390086900957e-10       4.951738135978e-12      -8.313369780491e-15 
   34       1.500683933049e-10       3.439926602852e-15       2.729090078184e-13       0.000000000000e+00       1.314300616822e-10       4.666427497654e-12      -7.469405232021e-15 
   35       1.522176598595e-10       3.812020515584e-15       2.750441432146e-13       0.000000000000e+00       1.244251027897e-10       4.401368365765e-12      -7.589750685045e-15 
   36       1.543883733529e-10       4.211026408281e-15       2.763283216078e-13       0.000000000000e+00       1.179401771471e-10       4.162151471949e-12      -8.278019596685e-15 
   37       1.565768109883e-10       4.637275087801e-15       2.766252099983e-13       0.000000000000e+00       1.118938632202e-10       3.952512835394e-12      -9.101035989394e-15 
   38       1.587849315665e-10       5.091486714338e-15       2.758172436316e-13       0.000000000000e+00       1.062722689341e-10       3.769248055622e-12      -9.859687312068e-15 
   39       1.610121433401e-10       5.574476018206e-15       2.737821153131e-13       0.000000000000e+00       1.010591361828e-10       3.605350341106e-12      -1.040064952125e-14 
   40       1.632517012349e-10       6.087035855689e-15       2.703829896739e-13       0.000000000000e+00       9.620679974446e-11       3.451114911558e-12      -1.054164868122e-14 
   41       1.654949673310e-10       6.629926099667e-15       2.654989731072e-13       0.000000000000e+00       9.165317588463e-11       3.296991166945e-12      -1.013781542338e-14 
   42       1.677473530425e-10       7.203840272779e-15       2.591307150164e-13       0.000000000000e+00       8.738599685946e-11       3.143737285706e-12      -9.310827198899e-15 
   43       1.700165215233e-10       7.809425033927e-15       2.513275995781e-13       0.000000000000e+00       8.339485362451e-11       2.995234214852e-12      -8.291488847382e-15 
   44       1.723076740188e-10       8.447286167549e-15       2.421604981846e-13       0.000000000000e+00       7.965188911845e-11       2.855727955329e-12      -7.361029961460e-15 
   45       1.746237221706e-10       9.117994912189e-15       2.316977527295e-13       0.000000000000e+00       7.612199724665e-11       2.728891410265e-12      -6.783073229919e-15 
   46       1.769665403185e-10       9.822114959205e-15       2.199216938846e-13       0.000000000000e+00       7.280034416724e-11       2.614652880031e-12      -6.568294691912e-15 
   47       1.793356010916e-10       1.056017937005e-14       2.067892364123e-13       0.000000000000e+00       6.968369070911e-11       2.511435721093e-12      -6.644452687349e-15 
   48       1.817272967404e-10       1.133268061796e-14       1.922547173678e-13       0.000000000000e+00       6.675906299500e-11       2.416979944677e-12      -6.920185092095e-15 
   49       1.841346795318e-10       1.214006865019e-14       1.762696605115e-13       0.000000000000e+00       6.400302474551e-11       2.328297223096e-12      -7.283887171649e-15 
   50       1.865504163986e-10       1.298272742525e-14       1.587855331746e-13       0.000000000000e+00       6.138887216053e-11       2.242459954204e-12      -7.626502118774e-15 
   51       1.889772006592e-10       1.386090151220e-14       1.397634456166e-13       0.000000000000e+00       5.891220918012e-11       2.159325340721e-12      -7.919789017897e-15 
   52       1.914197176989e-10       1.477474621797e-14       1.191666772212e-13       0.000000000000e+00       5.657105647199e-11       2.079472957121e-12      -8.157360136198e-15 
   53       1.938815719468e-10       1.572434449025e-14       9.695782163127e-14       0.000000000000e+00       5.435818915019e-11       2.003429709773e-12      -8.332628145689e-15 
   54       1.963651785299e-10       1.670970396671e-14       7.309869198291e-14       0.000000000000e+00       5.226078190629e-11       1.931664093055e-12      -8.438809279666e-15 
   55       1.988720820869e-10       1.773080828987e-14       4.755451380337e-14       0.000000000000e+00       5.026440724449e-11       1.864498604727e-12      -8.473193420080e-15 
   56       2.014042541635e-10       1.878779273939e-14       2.030794055933e-14       0.000000000000e+00       4.836700628185e-11       1.801834671563e-12      -8.451189335709e-15 
   57       2.039629283419e-10       1.988080706215e-14      -8.651646119012e-15       0.000000000000e+00       4.656776701420e-11       1.743349328476e-12      -8.395774111447e-15 
   58       2.065481116121e-10       2.100996421111e-14      -3.933204833944e-14       0.000000000000e+00       4.486289405419e-11       1.688562334162e-12      -8.333697627955e-15 
   59       2.091584926684e-10       2.217533950872e-14      -7.173817966230e-14       0.000000000000e+00       4.324542336402e-11       1.636827238615e-12      -8.295651962179e-15 
   60       2.117913502066e-10       2.337696981053e-14      -1.058719928150e-13       0.000000000000e+00       4.170503698801e-11       1.587322450647e-12      -8.316440787861e-15 
   61       2.144438770589e-10       2.461481640959e-14      -1.417324691674e-13       0.000000000000e+00       4.023097868496e-11       1.539268103527e-12      -8.425395969187e-15 
   62       2.171177073733e-10       2.588864591227e-14      -1.793157479299e-13       0.000000000000e+00       3.882198471040e-11       1.492653742631e-12      -8.614730427409e-15 
   63       2.198152475038e-10       2.719812101770e-14      -2.186148978151e-13       0.000000000000e+00       3.747826348926e-11       1.447658867591e-12      -8.864350011606e-15 
   64       2.225383039880e-10       2.854283246970e-14      -2.596197889032e-13       0.000000000000e+00       3.619850625630e-11       1.404439814299e-12      -9.150842201023e-15 
   65       2.252880367672e-10       2.992229706988e-14      -3.023170223159e-13       0.000000000000e+00       3.497980017799e-11       1.363127986833e-12      -9.447336056401e-15 
   66       2.280649124065e-10       3.133595569060e-14      -3.466898598909e-13       0.000000000000e+00       3.381754147433e-11       1.323828089372e-12      -9.723362171310e-15 
   67       2.308686573154e-10       3.278317128807e-14      -3.927181538556e-13       0.000000000000e+00       3.270534854072e-11       1.286616358118e-12      -9.944712623472e-15 
   68       2.336988328410e-10       3.426325412648e-14      -4.403817774809e-13       0.000000000000e+00       3.163679514838e-11       1.251528117427e-12      -1.008127978777e-14 
   69       2.365568004313e-10       3.577554782718e-14      -4.896718814533e-13       0.000000000000e+00       3.061121205556e-11       1.218521472412e-12      -1.013273025179e-14 
   70       2.394440724581e-10       3.731935726601e-14      -5.405818024834e-13       0.000000000000e+00       2.962891028513e-11       1.187503049452e-12      -1.010780542414e-14 
   71       2.423616952543e-10       3.889392163693e-14      -5.931037830026e-13       0.000000000000e+00       2.868942545315e-11       1.158336016523e-12      -1.001686582868e-14 
   72       2.453102182389e-10       4.049841316103e-14      -6.472289903762e-13       0.000000000000e+00       2.779147744007e-11       1.130838042084e-12      -9.871955118807e-15 
   73       2.482896630414e-10       4.213193579550e-14      -7.029475361171e-13       0.000000000000e+00       2.693293006187e-11       1.104779253956e-12      -9.686864091775e-15 
   74       2.512994926275e-10       4.379352394259e-14      -7.602484950985e-13       0.000000000000e+00       2.611075074132e-11       1.079880198206e-12      -9.477194702958e-15 
   75       2.543385804233e-10       4.548214115860e-14      -8.191199247677e-13       0.000000000000e+00       2.532097017906e-11       1.055809798031e-12      -9.260424080147e-15 
   76       2.574058031464e-10       4.719671589691e-14      -8.795456734345e-13       0.000000000000e+00       2.455968343555e-11       1.032264363192e-12      -9.052600184507e-15 
   77       2.605020123545e-10       4.893625911588e-14      -9.414950907267e-13       0.000000000000e+00       2.382635307873e-11       1.009225763850e-12      -8.857591637882e-15 
   78       2.636283679946e-10       5.069976587141e-14      -1.004931466976e-12       0.000000000000e+00       2.312103791039e-11       9.867468464052e-13      -8.675984742907e-15 
   79       2.667857287991e-10       5.248617966248e-14      -1.069815031808e-12       0.000000000000e+00       2.244338632499e-11       9.648741865523e-13      -8.508272951598e-15 
   80       2.699746341997e-10       5.429439189949e-14      -1.136102907515e-12       0.000000000000e+00       2.179261733584e-11       9.436477101664e-13      -8.354851808823e-15 
   81       2.731952862429e-10       5.612324137269e-14      -1.203749062426e-12       0.000000000000e+00       2.116750160119e-11       9.231003141941e-13      -8.216013895776e-15 
   82       2.764475315036e-10       5.797151372053e-14      -1.272704264274e-12       0.000000000000e+00       2.056634245041e-11       9.032574875424e-13      -8.091943773455e-15 
   83       2.797308430000e-10       5.983794089807e-14      -1.342916033574e-12       0.000000000000e+00       1.998695691014e-11       8.841369319680e-13      -7.982712926131e-15 
   84       2.830446631845e-10       6.172120674244e-14      -1.414332052041e-12       0.000000000000e+00       1.942721574448e-11       8.657478823197e-13      -7.888099493859e-15 
   85       2.863895378631e-10       6.361996589388e-14      -1.486911139252e-12       0.000000000000e+00       1.888680800214e-11       8.480897682186e-13      -7.807024209528e-15 
   86       2.897661379713e-10       6.553282705131e-14      -1.560614018649e-12       0.000000000000e+00       1.836573556630e-11       8.311526344004e-13      -7.738011246460e-15 
   87       2.931749033707e-10       6.745834673132e-14      -1.635400035551e-12       0.000000000000e+00       1.786377071187e-11       8.149170431361e-13      -7.679347231983e-15 
   88       2.966160308327e-10       6.939502883899e-14      -1.711227168589e-12       0.000000000000e+00       1.738044652684e-11       7.993536900681e-13      -7.629073246189e-15 
   89       3.000894620211e-10       7.134132423883e-14      -1.788052041146e-12       0.000000000000e+00       1.691504733361e-11       7.844230200467e-13      -7.584976820681e-15 
   90       3.035948714754e-10       7.329563032553e-14      -1.865829932795e-12       0.000000000000e+00       1.646659911034e-11       7.700748429670e-13      -7.544583937328e-15 
   91       3.071316545935e-10       7.525629059492e-14      -1.944514790742e-12       0.000000000000e+00       1.603385991231e-11       7.562479496052e-13      -7.505151027016e-15 
   92       3.106989156152e-10       7.722159421477e-14      -2.024059241256e-12       0.000000000000e+00       1.561531029322e-11       7.428697274551e-13      -7.463656968399e-15 
   93       3.142957986197e-10       7.918981745233e-14      -2.104414185842e-12       0.000000000000e+00       1.520951958567e-11       7.298726130236e-13      -7.417475108768e-15 
   94       3.179225635686e-10       8.115935601632e-14      -2.185527495391e-12       0.000000000000e+00       1.481632856377e-11       7.172471136389e-13      -7.366522322184e-15 
   95       3.215796506347e-10       8.312861191838e-14      -2.267345139865e-12       0.000000000000e+00       1.443582777072e-11       7.049960869521e-13      -7.311419880287e-15 
   96       3.252673443967e-10       8.509595353336e-14      -2.349811591731e-12       0.000000000000e+00       1.406799314843e-11       6.931184640189e-13      -7.252843545023e-15 
   97       3.289857665304e-10       8.705971574475e-14      -2.432869831700e-12       0.000000000000e+00       1.371268161823e-11       6.816090962478e-13      -7.191524901948e-15 
   98       3.327348685004e-10       8.901820009006e-14      -2.516461354469e-12       0.000000000000e+00       1.336962666158e-11       6.704586023480e-13      -7.128252693530e-15 
   99       3.365144242517e-10       9.096967490630e-14      -2.600526174455e-12       0.000000000000e+00       1.303843390072e-11       6.596532152769e-13      -7.063874152454e-15 
  100       3.403240229009e-10       9.291237547534e-14      -2.685002831534e-12       0.000000000000e+00       1.271857667941e-11       6.491746291881e-13      -6.999296334929e-15 
  101       3.441630614283e-10       9.484450416938e-14      -2.769828396784e-12       0.000000000000e+00       1.240939164364e-11       6.389998463794e-13      -6.935487453989e-15 
  102       3.480307373688e-10       9.676423059633e-14      -2.854938478217e-12       0.000000000000e+00       1.211007432230e-11       6.291010242404e-13      -6.873478212796e-15 
  103       3.519260415038e-10       9.866969174523e-14      -2.940267226521e-12       0.000000000000e+00       1.181967470788e-11       6.194453222007e-13      -6.814363137947e-15 
  104       3.558479981515e-10       1.005590366340e-13      -3.025748349730e-12       0.000000000000e+00       1.153731578575e-11       6.100028333336e-13      -6.759053559638e-15 
  105       3.597964387470e-10       1.024305668085e-13      -3.111318300973e-12       0.000000000000e+00       1.126289226028e-11       6.007719290677e-13      -6.707495677360e-15 
  106       3.637713196227e-10       1.042826151822e-13      -3.196913534045e-12       0.000000000000e+00       1.099645841699e-11       5.917570687818e-13      -6.659348860207e-15 
  107       3.677724792093e-10       1.061135038556e-13      -3.282469549554e-12       0.000000000000e+00       1.073801165714e-11       5.829609574453e-13      -6.614223188578e-15 
