# dimensionless total [l(l+1)/2pi] C_l's
# for l=2 to 3100, i.e. number of multipoles equal to 3099
#
# -> if you prefer output in CAMB/HealPix/LensPix units/order, set 'format' to 'camb' in input file
# -> if you don't want to see such a header, set 'headers' to 'no' in input file
# -> for CMB lensing (phi), these are C_l^phi-phi for the lensing potential.
#    Remember the conversion factors:
#    C_l^dd (deflection) = l(l+1) C_l^phi-phi
#    C_l^gg (shear/convergence) = 1/4 (l(l+1))^2 C_l^phi-phi
#
# 1:l     2:TT                     3:EE                     4:TE                     5:BB                     6:phiphi                 7:TPhi                   8:Ephi               
    2       1.694439416201e-10       4.279654390928e-15       3.771991108433e-13       0.000000000000e+00       7.257756125069e-09       5.395910674518e-10      -1.870282922365e-12 
    3       1.611414751645e-10       5.875442533437e-15       4.254645498035e-13       0.000000000000e+00       4.457576059031e-09       4.057317520523e-10      -1.482436442878e-12 
    4       1.525987182213e-10       5.494397102497e-15       4.048277897527e-13       0.000000000000e+00       3.103088423524e-09       3.206716839400e-10      -1.026809436575e-12 
    5       1.451077608927e-10       3.980307195270e-15       3.531284351710e-13       0.000000000000e+00       2.320184580822e-09       2.592470260431e-10      -6.191975327476e-13 
    6       1.394333539936e-10       2.381162082575e-15       2.923899577977e-13       0.000000000000e+00       1.816321079958e-09       2.141210230001e-10      -2.971722908498e-13 
    7       1.355102226670e-10       1.289178303140e-15       2.357394722035e-13       0.000000000000e+00       1.467995718189e-09       1.803540803597e-10      -7.141371663418e-14 
    8       1.327776958033e-10       7.586061548915e-16       1.890235112107e-13       0.000000000000e+00       1.214989240010e-09       1.554070010787e-10       6.340803653716e-14 
    9       1.309560786923e-10       5.679490622374e-16       1.539083532314e-13       0.000000000000e+00       1.025061123228e-09       1.362934572847e-10       1.228832835465e-13 
   10       1.296087483568e-10       4.912016448284e-16       1.302003205092e-13       0.000000000000e+00       8.786325341993e-10       1.214532425541e-10       1.280418950969e-13 
   11       1.289856216993e-10       4.207814470393e-16       1.167721118428e-13       0.000000000000e+00       7.448073762395e-10       1.102493258803e-10       1.011250876908e-13 
   12       1.289967596552e-10       3.502934057994e-16       1.116979673316e-13       0.000000000000e+00       6.526025985328e-10       9.979252205470e-11       6.051819365028e-14 
   13       1.291520556706e-10       3.047882431393e-16       1.124956574160e-13       0.000000000000e+00       5.771324978362e-10       8.993510309495e-11       2.042424407329e-14 
   14       1.292745929569e-10       2.937722834482e-16       1.168963436537e-13       0.000000000000e+00       5.138687795947e-10       8.097681893322e-11      -1.011438111182e-14 
   15       1.294243056939e-10       3.065236732411e-16       1.236353336295e-13       0.000000000000e+00       4.605465700345e-10       7.267622537897e-11      -2.798064275266e-14 
   16       1.298191994300e-10       3.289093289487e-16       1.317855769926e-13       0.000000000000e+00       4.152123585177e-10       6.573744947527e-11      -3.343769549249e-14 
   17       1.306248435127e-10       3.569064115722e-16       1.403441566579e-13       0.000000000000e+00       3.762916781728e-10       5.956741688237e-11      -2.969266919827e-14 
   18       1.316661657054e-10       3.964314372005e-16       1.489248731767e-13       0.000000000000e+00       3.424196379881e-10       5.448668356201e-11      -2.033496336453e-14 
   19       1.329701572854e-10       4.524507381304e-16       1.575082106968e-13       0.000000000000e+00       3.130758697985e-10       5.040501599142e-11      -8.713934718845e-15 
   20       1.345562965518e-10       5.283265973416e-16       1.661697265208e-13       0.000000000000e+00       2.871861525708e-10       4.681821648098e-11       1.338346316580e-15 
   21       1.362640847993e-10       6.231611431325e-16       1.752215718106e-13       0.000000000000e+00       2.643684088394e-10       4.359517826219e-11       7.965731058517e-15 
   22       1.378613243035e-10       7.342514779233e-16       1.849866646864e-13       0.000000000000e+00       2.440868703255e-10       4.067473991035e-11       1.021069352424e-14 
   23       1.394695040286e-10       8.615136739207e-16       1.952308791651e-13       0.000000000000e+00       2.260487449947e-10       3.803611300475e-11       8.625738431554e-15 
   24       1.412644983907e-10       1.005467075274e-15       2.054694091976e-13       0.000000000000e+00       2.098210155412e-10       3.563314321760e-11       4.589780719151e-15 
   25       1.430947665910e-10       1.166250016020e-15       2.152956479935e-13       0.000000000000e+00       1.952407384578e-10       3.340619592601e-11      -3.976593710470e-16 
   26       1.447282120254e-10       1.343835030829e-15       2.243222812147e-13       0.000000000000e+00       1.820830109733e-10       3.129395095312e-11      -4.705165769721e-15 
   27       1.463087515930e-10       1.538795696628e-15       2.323921165161e-13       0.000000000000e+00       1.701854620358e-10       2.938883820512e-11      -7.540732735157e-15 
   28       1.480723274298e-10       1.751987051282e-15       2.394506704256e-13       0.000000000000e+00       1.593260293987e-10       2.780277067786e-11      -8.479906673928e-15 
   29       1.500376955802e-10       1.984806441268e-15       2.455712152278e-13       0.000000000000e+00       1.494497475059e-10       2.649682767725e-11      -7.804579012387e-15 
   30       1.521276010270e-10       2.238944301045e-15       2.509085778675e-13       0.000000000000e+00       1.404575972908e-10       2.535099580035e-11      -6.166752440269e-15 
   31       1.542450450132e-10       2.516041158901e-15       2.556246407697e-13       0.000000000000e+00       1.321745799884e-10       2.422961525936e-11      -4.333204872664e-15 
   32       1.563699189462e-10       2.816830394143e-15       2.596881747153e-13       0.000000000000e+00       1.245624142777e-10       2.311520620542e-11      -2.756110856377e-15 
   33       1.584947129947e-10       3.141658972901e-15       2.629996378271e-13       0.000000000000e+00       1.175711922979e-10       2.202239645637e-11      -1.856394747542e-15 
   34       1.606077305919e-10       3.490888846110e-15       2.654456357498e-13       0.000000000000e+00       1.111070875012e-10       2.096544003108e-11      -1.984767590338e-15 
   35       1.627270568881e-10       3.865573914715e-15       2.669141203998e-13       0.000000000000e+00       1.051373290893e-10       1.996711145877e-11      -2.881482030620e-15 
   36       1.648770202024e-10       4.267019226950e-15       2.672823538312e-13       0.000000000000e+00       9.961310521670e-11       1.905245391278e-11      -4.017692952706e-15 
   37       1.670754030637e-10       4.696531772124e-15       2.664294218850e-13       0.000000000000e+00       9.446195674099e-11       1.823906209767e-11      -4.858284657649e-15 
   38       1.693223359125e-10       5.155161792059e-15       2.642968770929e-13       0.000000000000e+00       8.967174413568e-11       1.751249257589e-11      -5.308728994161e-15 
   39       1.716064040353e-10       5.643876440754e-15       2.608478388206e-13       0.000000000000e+00       8.522923442386e-11       1.684170260656e-11      -5.411774785392e-15 
   40       1.739064978835e-10       6.163626529764e-15       2.560512036579e-13       0.000000000000e+00       8.109463875015e-11       1.618459043731e-11      -5.229644530524e-15 
   41       1.762003964131e-10       6.715176986198e-15       2.498851346875e-13       0.000000000000e+00       7.721587803145e-11       1.550175933243e-11      -4.848517748378e-15 
   42       1.784959846413e-10       7.298536809110e-15       2.423480479424e-13       0.000000000000e+00       7.358256718112e-11       1.480514829951e-11      -4.390261457735e-15 
   43       1.808087231871e-10       7.913340071232e-15       2.334517957736e-13       0.000000000000e+00       7.018568219611e-11       1.412386711388e-11      -4.006951349056e-15 
   44       1.831528435181e-10       8.558984050946e-15       2.232193966182e-13       0.000000000000e+00       6.700131314275e-11       1.349117499688e-11      -3.879787721305e-15 
   45       1.855399329322e-10       9.235009808982e-15       2.116678989901e-13       0.000000000000e+00       6.399937124602e-11       1.293536655851e-11      -4.160825173076e-15 
   46       1.879747191822e-10       9.942411415467e-15       1.987495349992e-13       0.000000000000e+00       6.117561696041e-11       1.244873336106e-11      -4.773526844038e-15 
   47       1.904576400507e-10       1.068269516156e-14       1.843939336575e-13       0.000000000000e+00       5.852718392331e-11       1.200964578887e-11      -5.555370904619e-15 
   48       1.929856348480e-10       1.145752841455e-14       1.685238502589e-13       0.000000000000e+00       5.604291048822e-11       1.159071410655e-11      -6.310818162963e-15 
   49       1.955518493070e-10       1.226874881060e-14       1.510547111386e-13       0.000000000000e+00       5.370272033447e-11       1.115844235456e-11      -6.809500354664e-15 
   50       1.981485491423e-10       1.311793776719e-14       1.319112464739e-13       0.000000000000e+00       5.148375786220e-11       1.068421369937e-11      -6.853301497189e-15 
   51       2.007774777096e-10       1.400498321731e-14       1.110837673447e-13       0.000000000000e+00       4.938219468930e-11       1.018156475809e-11      -6.503271154384e-15 
   52       2.034417997082e-10       1.492914263594e-14       8.858637753257e-14       0.000000000000e+00       4.739627162747e-11       9.678430705213e-12      -5.911172560323e-15 
   53       2.061429975515e-10       1.588943358123e-14       6.444156121632e-14       0.000000000000e+00       4.551976686822e-11       9.206880812731e-12      -5.257369214773e-15 
   54       2.088807272572e-10       1.688462238458e-14       3.868053187379e-14       0.000000000000e+00       4.374169446476e-11       8.803305590627e-12      -4.752255199505e-15 
   55       2.116531760593e-10       1.791360301061e-14       1.132804777304e-14       0.000000000000e+00       4.204971170644e-11       8.498434632517e-12      -4.585234407950e-15 
   56       2.144585694165e-10       1.897666976027e-14      -1.764835816861e-14       0.000000000000e+00       4.044202322830e-11       8.284057531190e-12      -4.753539103631e-15 
   57       2.172937859581e-10       2.007454092439e-14      -4.829960950751e-14       0.000000000000e+00       3.891790600539e-11       8.138363515360e-12      -5.193391528056e-15 
   58       2.201537667131e-10       2.120800012144e-14      -8.068090860154e-14       0.000000000000e+00       3.747410595716e-11       8.035181904002e-12      -5.828129307804e-15 
   59       2.230313905489e-10       2.237790018906e-14      -1.148519929060e-13       0.000000000000e+00       3.610468093174e-11       7.943773040566e-12      -6.567592222001e-15 
   60       2.259173496090e-10       2.358516707566e-14      -1.508773912696e-13       0.000000000000e+00       3.480084369024e-11       7.828619227205e-12      -7.307508969801e-15 
   61       2.288031580514e-10       2.483053445608e-14      -1.888095565181e-13       0.000000000000e+00       3.355344323656e-11       7.658230116934e-12      -7.951256187704e-15 
   62       2.316912492333e-10       2.611366916573e-14      -2.286332591477e-13       0.000000000000e+00       3.236141486352e-11       7.434341469667e-12      -8.482230097668e-15 
   63       2.345869342253e-10       2.743385547303e-14      -2.703091101987e-13       0.000000000000e+00       3.122495681496e-11       7.168929206450e-12      -8.906705189054e-15 
   64       2.374954438592e-10       2.879024247268e-14      -3.137893022399e-13       0.000000000000e+00       3.014298745780e-11       6.875848718574e-12      -9.232990130876e-15 
   65       2.404219035831e-10       3.018183943335e-14      -3.590173223433e-13       0.000000000000e+00       2.911307197903e-11       6.570911823731e-12      -9.471524393849e-15 
   66       2.433713083172e-10       3.160751114531e-14      -4.059276650566e-13       0.000000000000e+00       2.813134908270e-11       6.271963722165e-12      -9.634974872433e-15 
   67       2.463484973097e-10       3.306597326805e-14      -4.544455453773e-13       0.000000000000e+00       2.719245768690e-11       5.998959952829e-12      -9.738332506886e-15 
   68       2.493580759687e-10       3.455597260593e-14      -5.045032615103e-13       0.000000000000e+00       2.629098505264e-11       5.769358218683e-12      -9.796145061427e-15 
   69       2.524042191729e-10       3.607688075217e-14      -5.560937747920e-13       0.000000000000e+00       2.542631576045e-11       5.583037566547e-12      -9.813348369017e-15 
   70       2.554907827529e-10       3.762821292773e-14      -6.092275207245e-13       0.000000000000e+00       2.459863809377e-11       5.434447643355e-12      -9.792742295383e-15 
   71       2.586213269628e-10       3.920945377226e-14      -6.639168560989e-13       0.000000000000e+00       2.380747576580e-11       5.316981354127e-12      -9.737713161651e-15 
   72       2.617990899797e-10       4.082005742132e-14      -7.201761977938e-13       0.000000000000e+00       2.305165352773e-11       5.222931993808e-12      -9.652257122308e-15 
   73       2.650269614029e-10       4.245944758366e-14      -7.780221615749e-13       0.000000000000e+00       2.232926277710e-11       5.143450379100e-12      -9.541003543160e-15 
   74       2.683074557534e-10       4.412701761853e-14      -8.374737008939e-13       0.000000000000e+00       2.163762716605e-11       5.068501980299e-12      -9.409238379285e-15 
   75       2.716426859737e-10       4.582213061285e-14      -8.985522456880e-13       0.000000000000e+00       2.097326820962e-11       4.986824053135e-12      -9.262927552999e-15 
   76       2.750335123522e-10       4.754405517763e-14      -9.612704397501e-13       0.000000000000e+00       2.033278099214e-11       4.888378712435e-12      -9.107861646565e-15 
   77       2.784768687035e-10       4.929175914969e-14      -1.025595674942e-12       0.000000000000e+00       1.971572166944e-11       4.772323350909e-12      -8.946858238055e-15 
   78       2.819678981926e-10       5.106407823603e-14      -1.091480128544e-12       0.000000000000e+00       1.912218648013e-11       4.640422534585e-12      -8.782089500729e-15 
   79       2.855006919477e-10       5.285977573656e-14      -1.158871481304e-12       0.000000000000e+00       1.855193288494e-11       4.494689180416e-12      -8.615920902396e-15 
   80       2.890682456511e-10       5.467754130321e-14      -1.227712822437e-12       0.000000000000e+00       1.800436383723e-11       4.337392869421e-12      -8.450916565227e-15 
   81       2.926624161299e-10       5.651598969911e-14      -1.297942554635e-12       0.000000000000e+00       1.747851205364e-11       4.171068159832e-12      -8.289844625551e-15 
   82       2.962738779471e-10       5.837365955767e-14      -1.369494299063e-12       0.000000000000e+00       1.697302428465e-11       3.998522900239e-12      -8.135682593668e-15 
   83       2.998920799924e-10       6.024901214173e-14      -1.442296800369e-12       0.000000000000e+00       1.648614558518e-11       3.822846542735e-12      -7.991622713649e-15 
   84       3.035081585776e-10       6.214049470183e-14      -1.516281091191e-12       0.000000000000e+00       1.601615279531e-11       3.647105344732e-12      -7.860436675641e-15 
   85       3.071243266847e-10       6.404674533741e-14      -1.591403558441e-12       0.000000000000e+00       1.556277200521e-11       3.473351707880e-12      -7.742437005052e-15 
   86       3.107459689051e-10       6.596641998011e-14      -1.667626544530e-12       0.000000000000e+00       1.512596832936e-11       3.303465086672e-12      -7.637185970474e-15 
   87       3.143788295163e-10       6.789813066128e-14      -1.744911454465e-12       0.000000000000e+00       1.470550953018e-11       3.139453503603e-12      -7.544100855148e-15 
   88       3.180290187624e-10       6.984044535681e-14      -1.823218782863e-12       0.000000000000e+00       1.430095783839e-11       2.983456599935e-12      -7.462448549582e-15 
   89       3.217030191337e-10       7.179188783199e-14      -1.902508140959e-12       0.000000000000e+00       1.391166177335e-11       2.837748686466e-12      -7.391340144172e-15 
   90       3.254076916471e-10       7.375093748631e-14      -1.982738283624e-12       0.000000000000e+00       1.353674796340e-11       2.704741794304e-12      -7.329725521825e-15 
   91       3.291502821259e-10       7.571602919832e-14      -2.063867136369e-12       0.000000000000e+00       1.317511296620e-11       2.586988725631e-12      -7.276387950573e-15 
   92       3.329384274801e-10       7.768555317042e-14      -2.145851822368e-12       0.000000000000e+00       1.282541508904e-11       2.487186104478e-12      -7.229938676203e-15 
   93       3.367786146316e-10       7.965787331073e-14      -2.228646923483e-12       0.000000000000e+00       1.248639508769e-11       2.407456633960e-12      -7.188988813949e-15 
   94       3.406712785183e-10       8.163138587816e-14      -2.312198905537e-12       0.000000000000e+00       1.215791120330e-11       2.347065758970e-12      -7.152706341440e-15 
   95       3.446149750103e-10       8.360446941170e-14      -2.396450900647e-12       0.000000000000e+00       1.184004539609e-11       2.304365632034e-12      -7.120333269623e-15 
   96       3.486078478133e-10       8.557546707728e-14      -2.481344401226e-12       0.000000000000e+00       1.153278472123e-11       2.277478556235e-12      -7.091012874137e-15 
   97       3.526476135086e-10       8.754268676699e-14      -2.566819262755e-12       0.000000000000e+00       1.123601766370e-11       2.264290141769e-12      -7.063786721693e-15 
   98       3.567315465928e-10       8.950440119844e-14      -2.652813706553e-12       0.000000000000e+00       1.094953047301e-11       2.262442462498e-12      -7.037591696446e-15 
   99       3.608564645172e-10       9.145884801400e-14      -2.739264322551e-12       0.000000000000e+00       1.067300349810e-11       2.269327212509e-12      -7.011257026372e-15 
  100       3.650187127281e-10       9.340422988008e-14      -2.826106072058e-12       0.000000000000e+00       1.040600752204e-11       2.282078862663e-12      -6.983501309645e-15 
  101       3.692141497065e-10       9.533871458643e-14      -2.913272290534e-12       0.000000000000e+00       1.014800009691e-11       2.297567817156e-12      -6.952929541009e-15 
  102       3.734381320074e-10       9.726043514542e-14      -3.000694690363e-12       0.000000000000e+00       9.898321878543e-12       2.312393570070e-12      -6.918030138162e-15 
  103       3.776854993002e-10       9.916748989133e-14      -3.088303363620e-12       0.000000000000e+00       9.656192961360e-12       2.322877861930e-12      -6.877171968122e-15 
  104       3.819516966006e-10       1.010579940773e-13      -3.176028230673e-12       0.000000000000e+00       9.420892249685e-12       2.325860043356e-12      -6.829004674304e-15 
  105       3.862363458415e-10       1.029302423900e-13      -3.263803602862e-12       0.000000000000e+00       9.192331061602e-12       2.321220269391e-12      -6.773727651237e-15 
  106       3.905401311253e-10       1.047825686759e-13      -3.351564244207e-12       0.000000000000e+00       8.970550538360e-12       2.309685980549e-12      -6.711987744154e-15 
  107       3.948637021807e-10       1.066132970608e-13      -3.439243999052e-12       0.000000000000e+00       8.755543893328e-12       2.292062081087e-12      -6.644492696529e-15 
