# Matter power spectrum P(k) at redshift z=0
# for k=1.11761e-05 to 1.4771 h/Mpc,
# number of wavenumbers equal to 611
#    1:k (h/Mpc)              2:P (Mpc/h)^3        
       1.117609791201e-05       4.591441863330e+01 
       2.497738798977e-05       9.994967070222e+01 
       3.883431707341e-05       1.531706803214e+02 
       5.278970101421e-05       2.061291050166e+02 
       6.688716699074e-05       2.591543975732e+02 
       8.117159983798e-05       3.125034538994e+02 
       9.568960464383e-05       3.664029779173e+02 
       1.104899925932e-04       4.210671833571e+02 
       1.256242970856e-04       4.767071758175e+02 
       1.411473271812e-04       5.335369129487e+02 
       1.571177653857e-04       5.917775919017e+02 
       1.735988165695e-04       6.516612792654e+02 
       1.906589143168e-04       7.134341856198e+02 
       2.083724900450e-04       7.773597990478e+02 
       2.268208085828e-04       8.437219952646e+02 
       2.460928712571e-04       9.128281841377e+02 
       2.662863834822e-04       9.850125101445e+02 
       2.875087778831e-04       1.060639086042e+03 
       3.098782754583e-04       1.140105197748e+03 
       3.335249554831e-04       1.223844369334e+03 
       3.585917889877e-04       1.312329116491e+03 
       3.852355700169e-04       1.406073142363e+03 
       4.136276531101e-04       1.505632640450e+03 
       4.439543748295e-04       1.611606267685e+03 
       4.764170032759e-04       1.724633243719e+03 
       5.112310259158e-04       1.845388934384e+03 
       5.486245590996e-04       1.974577212132e+03 
       5.888356522210e-04       2.112918889230e+03 
       6.321082788453e-04       2.261135635532e+03 
       6.786868715107e-04       2.419929069783e+03 
       7.288093796333e-04       2.589955188513e+03 
       7.826990161105e-04       2.771794973014e+03 
       8.405550965546e-04       2.965922837141e+03 
       9.025436311553e-04       3.172675414347e+03 
       9.687885449430e-04       3.392223827827e+03 
       1.039364506935e-03       3.624552811822e+03 
       1.114292281943e-03       3.869449673243e+03 
       1.193537259212e-03       4.126505056234e+03 
       1.277011396512e-03       4.395125942891e+03 
       1.364578338679e-03       4.674559609117e+03 
       1.456061043269e-03       4.963925757077e+03 
       1.477104874446e-03       5.030119862382e+03 
       1.551250971951e-03       5.262253120968e+03 
       1.649917831242e-03       5.568516682376e+03 
       1.751818954155e-03       5.881672197860e+03 
       1.856707644329e-03       6.200685785622e+03 
       1.964340079548e-03       6.524557480410e+03 
       2.074480627611e-03       6.852338627003e+03 
       2.186905625107e-03       7.183122647628e+03 
       2.301405796283e-03       7.516108625327e+03 
       2.417787551160e-03       7.850557822354e+03 
       2.535873415172e-03       8.185798955920e+03 
       2.655501824489e-03       8.521230333699e+03 
       2.776526486957e-03       8.856315860467e+03 
       2.898815468991e-03       9.190580283180e+03 
       3.022250130616e-03       9.523604091449e+03 
       3.146723997518e-03       9.855018325781e+03 
       3.272141631776e-03       1.018449947255e+04 
       3.398417541823e-03       1.051176460152e+04 
       3.525475156451e-03       1.083656687418e+04 
       3.653245876322e-03       1.115869148987e+04 
       3.781668208605e-03       1.147795204550e+04 
       3.910686985115e-03       1.179418726851e+04 
       4.040252660972e-03       1.210725810892e+04 
       4.170320688866e-03       1.241704517782e+04 
       4.300850962934e-03       1.272344650496e+04 
       4.431807325896e-03       1.302637557108e+04 
       4.563157133076e-03       1.332575956649e+04 
       4.694870867221e-03       1.362153783226e+04 
       4.826921798406e-03       1.391366046569e+04 
       4.959285683824e-03       1.420208707438e+04 
       5.091940502740e-03       1.448678589831e+04 
       5.224866222387e-03       1.476773263008e+04 
       5.358044591056e-03       1.504490903001e+04 
       5.491458955064e-03       1.531830275955e+04 
       5.625094096690e-03       1.558790654813e+04 
       5.758936090503e-03       1.585371683026e+04 
       5.892972175863e-03       1.611573380304e+04 
       6.027190643605e-03       1.637396384694e+04 
       6.161580735220e-03       1.662841469841e+04 
       6.296132553010e-03       1.687909687081e+04 
       6.430836979928e-03       1.712602335811e+04 
       6.565685607949e-03       1.736920936540e+04 
       6.700670673972e-03       1.760867208272e+04 
       6.835785002392e-03       1.784443046025e+04 
       6.971021953555e-03       1.807650501119e+04 
       7.106375377453e-03       1.830491762695e+04 
       7.241839572037e-03       1.852969138943e+04 
       7.377409245672e-03       1.875085042058e+04 
       7.513079483242e-03       1.896841971774e+04 
       7.648845715536e-03       1.918242502501e+04 
       7.784703691540e-03       1.939289271277e+04 
       7.920649453341e-03       1.959984966766e+04 
       8.056679313364e-03       1.980332321800e+04 
       8.192789833693e-03       2.000334105139e+04 
       8.328977807269e-03       2.019993116684e+04 
       8.465240240779e-03       2.039312182663e+04 
       8.601574339045e-03       2.058294151736e+04 
       8.737977490797e-03       2.076941892484e+04 
       8.874447255658e-03       2.095258289444e+04 
       9.010981352258e-03       2.113246241416e+04 
       9.147577647340e-03       2.130908657006e+04 
       9.284234145784e-03       2.148248452489e+04 
       9.420948981453e-03       2.165268547391e+04 
       9.557720408788e-03       2.181971861333e+04 
       9.694546795084e-03       2.198361310000e+04 
       9.831426613387e-03       2.214439801868e+04 
       9.968358435946e-03       2.230210234886e+04 
       1.010534092819e-02       2.245675493959e+04 
       1.024237284318e-02       2.260838448966e+04 
       1.037945301644e-02       2.275701953683e+04 
       1.051658036129e-02       2.290268845410e+04 
       1.065375386438e-02       2.304541945476e+04 
       1.079097258171e-02       2.318524059557e+04 
       1.092823563487e-02       2.332217978627e+04 
       1.106554220752e-02       2.345626479658e+04 
       1.120289154226e-02       2.358752326189e+04 
       1.134028293757e-02       2.371598268701e+04 
       1.147771574511e-02       2.384167044309e+04 
       1.161518936712e-02       2.396461376185e+04 
       1.175270325405e-02       2.408483972168e+04 
       1.189025690238e-02       2.420237523598e+04 
       1.202784985251e-02       2.431724703209e+04 
       1.216548168692e-02       2.442948163212e+04 
       1.230315202838e-02       2.453910533875e+04 
       1.244086053829e-02       2.464614422333e+04 
       1.257860691518e-02       2.475062412022e+04 
       1.271639089328e-02       2.485257062950e+04 
       1.285421224122e-02       2.495200912731e+04 
       1.299207076078e-02       2.504896478277e+04 
       1.312996628578e-02       2.514346258131e+04 
       1.326789868105e-02       2.523552735094e+04 
       1.340586784141e-02       2.532518378917e+04 
       1.354387369078e-02       2.541245650612e+04 
       1.368191618139e-02       2.549737063223e+04 
       1.381999529294e-02       2.557994833885e+04 
       1.395811103195e-02       2.566021647213e+04 
       1.409626343106e-02       2.573819832883e+04 
       1.423445254845e-02       2.581391814800e+04 
       1.437267846728e-02       2.588740004675e+04 
       1.451094129519e-02       2.595866794014e+04 
       1.464924116379e-02       2.602774527081e+04 
       1.477104874446e-02       2.608677414969e+04 
       1.478757822833e-02       2.609465470899e+04 
       1.492595266724e-02       2.615941827177e+04 
       1.506436468178e-02       2.622205794188e+04 
       1.520281449582e-02       2.628259608267e+04 
       1.534130235546e-02       2.634105530645e+04 
       1.547982852886e-02       2.639745818800e+04 
       1.561839330596e-02       2.645182711372e+04 
       1.575699699840e-02       2.650418425371e+04 
       1.589563993924e-02       2.655455157773e+04 
       1.603432248294e-02       2.660295087604e+04 
       1.617304500519e-02       2.664940377771e+04 
       1.631180790286e-02       2.669393175862e+04 
       1.645061159397e-02       2.673655615023e+04 
       1.658945651761e-02       2.677729814182e+04 
       1.672834313395e-02       2.681617878453e+04 
       1.686727192429e-02       2.685321899333e+04 
       1.700624339107e-02       2.688843954792e+04 
       1.714525805789e-02       2.692186109516e+04 
       1.728431646966e-02       2.695350414983e+04 
       1.742341919265e-02       2.698338909579e+04 
       1.756256681461e-02       2.701153618779e+04 
       1.770175994490e-02       2.703796555218e+04 
       1.784099921467e-02       2.706269718851e+04 
       1.798028527701e-02       2.708575097030e+04 
       1.811961880712e-02       2.710714664608e+04 
       1.825900050255e-02       2.712690384069e+04 
       1.839843108342e-02       2.714504205525e+04 
       1.853791129264e-02       2.716158066948e+04 
       1.867744189617e-02       2.717653894143e+04 
       1.881702368331e-02       2.718993600867e+04 
       1.895665746700e-02       2.720179088878e+04 
       1.909634408411e-02       2.721212248026e+04 
       1.923608439576e-02       2.722094956285e+04 
       1.937587928767e-02       2.722829079848e+04 
       1.951572967056e-02       2.723416473137e+04 
       1.965563648046e-02       2.723858978927e+04 
       1.979560067916e-02       2.724158428268e+04 
       1.993562325456e-02       2.724316640672e+04 
       2.007570522120e-02       2.724335424074e+04 
       2.021584762060e-02       2.724216574814e+04 
       2.035605152178e-02       2.723961877820e+04 
       2.049631802176e-02       2.723573106460e+04 
       2.063664824601e-02       2.723052022728e+04 
       2.077704334901e-02       2.722400377149e+04 
       2.091750451478e-02       2.721619908850e+04 
       2.105803295745e-02       2.720712345437e+04 
       2.119862992178e-02       2.719679403512e+04 
       2.133929668386e-02       2.718522787967e+04 
       2.148003455164e-02       2.717244192349e+04 
       2.162084486560e-02       2.715845298914e+04 
       2.176172899944e-02       2.714327778578e+04 
       2.190268836072e-02       2.712693290862e+04 
       2.204372439158e-02       2.710943483931e+04 
       2.218483856948e-02       2.709079994551e+04 
       2.232603240794e-02       2.707104448103e+04 
       2.246730745730e-02       2.705018458598e+04 
       2.260866530557e-02       2.702823628648e+04 
       2.275010757919e-02       2.700521549438e+04 
       2.289163594393e-02       2.698113800677e+04 
       2.303325210575e-02       2.695601950638e+04 
       2.317495781171e-02       2.692987556149e+04 
       2.331675485089e-02       2.690272162474e+04 
       2.345864505536e-02       2.687457303437e+04 
       2.360063030118e-02       2.684544501204e+04 
       2.374271250943e-02       2.681535266372e+04 
       2.388489364722e-02       2.678431098041e+04 
       2.402717572884e-02       2.675233483620e+04 
       2.416956081681e-02       2.671943898765e+04 
       2.431205102311e-02       2.668563807533e+04 
       2.445464851032e-02       2.665094662278e+04 
       2.459735549286e-02       2.661537903450e+04 
       2.474017423826e-02       2.657894959779e+04 
       2.488310706848e-02       2.654167248226e+04 
       2.502615636123e-02       2.650356173649e+04 
       2.516932455136e-02       2.646463129267e+04 
       2.531261413233e-02       2.642489496184e+04 
       2.545602765764e-02       2.638436643511e+04 
       2.559956774239e-02       2.634305928384e+04 
       2.574323706483e-02       2.630098695858e+04 
       2.588703836800e-02       2.625816278805e+04 
       2.603097446139e-02       2.621459998033e+04 
       2.617504822269e-02       2.617031162054e+04 
       2.631926259954e-02       2.612531067244e+04 
       2.646362061141e-02       2.607960997646e+04 
       2.660812535149e-02       2.603322224884e+04 
       2.675277998862e-02       2.598616008314e+04 
       2.689758776939e-02       2.593843594901e+04 
       2.704255202017e-02       2.589006219064e+04 
       2.718767614932e-02       2.584105102766e+04 
       2.733296364939e-02       2.579141455276e+04 
       2.747841809949e-02       2.574116473446e+04 
       2.762404316761e-02       2.569031341380e+04 
       2.776984261316e-02       2.563887230555e+04 
       2.791582028949e-02       2.558685299670e+04 
       2.806198014653e-02       2.553426694555e+04 
       2.820832623357e-02       2.548112548366e+04 
       2.835486270205e-02       2.542743981303e+04 
       2.850159380851e-02       2.537322100618e+04 
       2.864852391763e-02       2.531848000546e+04 
       2.879565750536e-02       2.526322762341e+04 
       2.894299916219e-02       2.520747454262e+04 
       2.909055359652e-02       2.515123131301e+04 
       2.923832563814e-02       2.509450835298e+04 
       2.938632024188e-02       2.503731594955e+04 
       2.953454249134e-02       2.497966425647e+04 
       2.968299760282e-02       2.492156329392e+04 
       2.983169092930e-02       2.486302294841e+04 
       2.998062796470e-02       2.480405297239e+04 
       3.012981434819e-02       2.474466298343e+04 
       3.027925586873e-02       2.468486246321e+04 
       3.042895846972e-02       2.462466075766e+04 
       3.057892825391e-02       2.456406707680e+04 
       3.072917148847e-02       2.450309049282e+04 
       3.087969461020e-02       2.444173993990e+04 
       3.103050423103e-02       2.438002421525e+04 
       3.118160714372e-02       2.431795197620e+04 
       3.133301032776e-02       2.425553174086e+04 
       3.148472095549e-02       2.419277188727e+04 
       3.163674639858e-02       2.412968065247e+04 
       3.178909423464e-02       2.406626613268e+04 
       3.194177225419e-02       2.400253628093e+04 
       3.209478846790e-02       2.393849890804e+04 
       3.224815111412e-02       2.387416168224e+04 
       3.240186866678e-02       2.380953212548e+04 
       3.255594984356e-02       2.374461761558e+04 
       3.271040361445e-02       2.367942538495e+04 
       3.286523921070e-02       2.361396251861e+04 
       3.302046613417e-02       2.354823595453e+04 
       3.317609416701e-02       2.348225248033e+04 
       3.333213338191e-02       2.341601873723e+04 
       3.348859415269e-02       2.334954121415e+04 
       3.364548716546e-02       2.328282624808e+04 
       3.380282343025e-02       2.321588002516e+04 
       3.396061429320e-02       2.314870857642e+04 
       3.411887144932e-02       2.308131777932e+04 
       3.427760695584e-02       2.301371335452e+04 
       3.443683324624e-02       2.294590086584e+04 
       3.459656314491e-02       2.287788571834e+04 
       3.475680988254e-02       2.280967315701e+04 
       3.491758711231e-02       2.274126826600e+04 
       3.507890892683e-02       2.267267596521e+04 
       3.524078987598e-02       2.260390101169e+04 
       3.540324498557e-02       2.253494799481e+04 
       3.556628977713e-02       2.246582133521e+04 
       3.572994028851e-02       2.239652528632e+04 
       3.589421309572e-02       2.232706392653e+04 
       3.605912533589e-02       2.225744116175e+04 
       3.622469473139e-02       2.218766072043e+04 
       3.639093961536e-02       2.211772615346e+04 
       3.655787895855e-02       2.204764083034e+04 
       3.672553239767e-02       2.197740793506e+04 
       3.689392026537e-02       2.190703046742e+04 
       3.706306362185e-02       2.183651123538e+04 
       3.723298428827e-02       2.176585285655e+04 
       3.740370488218e-02       2.169505774969e+04 
       3.757524885491e-02       2.162412813669e+04 
       3.774764053125e-02       2.155306603372e+04 
       3.792090515145e-02       2.148187325106e+04 
       3.809506891580e-02       2.141055138656e+04 
       3.827015903193e-02       2.133910182367e+04 
       3.844620376501e-02       2.126752572324e+04 
       3.862323249115e-02       2.119582402160e+04 
       3.880127575414e-02       2.112399742236e+04 
       3.898036532588e-02       2.105204639342e+04 
       3.916053427074e-02       2.097997116029e+04 
       3.934181701411e-02       2.090777169579e+04 
       3.952424941560e-02       2.083544771883e+04 
       3.970786884714e-02       2.076299868279e+04 
       3.989271427649e-02       2.069042376943e+04 
       4.007882635648e-02       2.061772187990e+04 
       4.026624752059e-02       2.054489162478e+04 
       4.045502208533e-02       2.047193131607e+04 
       4.064519636003e-02       2.039883895730e+04 
       4.083681876470e-02       2.032561222509e+04 
       4.102993995664e-02       2.025224846722e+04 
       4.122461296665e-02       2.017874468495e+04 
       4.142089334563e-02       2.010509751951e+04 
       4.161883932262e-02       2.003130323418e+04 
       4.181851197530e-02       1.995735770344e+04 
       4.201997541412e-02       1.988325639265e+04 
       4.222329698148e-02       1.980899433834e+04 
       4.242854746733e-02       1.973456612990e+04 
       4.263580134287e-02       1.965996588597e+04 
       4.284513701421e-02       1.958518723440e+04 
       4.305663709802e-02       1.951022327886e+04 
       4.327038872147e-02       1.943506657866e+04 
       4.348648384911e-02       1.935970911524e+04 
       4.370501963948e-02       1.928414225730e+04 
       4.392609883489e-02       1.920835672680e+04 
       4.414983018796e-02       1.913234255904e+04 
       4.437632892915e-02       1.905608906136e+04 
       4.460571728011e-02       1.897958476160e+04 
       4.483812501813e-02       1.890281735847e+04 
       4.507369009801e-02       1.882577366826e+04 
       4.531255933824e-02       1.874843955695e+04 
       4.555488917968e-02       1.867079987276e+04 
       4.580084652587e-02       1.859283837184e+04 
       4.605060967566e-02       1.851453763036e+04 
       4.630436936031e-02       1.843587895452e+04 
       4.656232989943e-02       1.835684227452e+04 
       4.682471049183e-02       1.827740602721e+04 
       4.709174666069e-02       1.819754702653e+04 
       4.736369187501e-02       1.811724031983e+04 
       4.764081937350e-02       1.803645902189e+04 
       4.792342422134e-02       1.795517413063e+04 
       4.821182563558e-02       1.787335432042e+04 
       4.850636962170e-02       1.779096570293e+04 
       4.880743197140e-02       1.770797155706e+04 
       4.911542168120e-02       1.762433202429e+04 
       4.943078486321e-02       1.754000375283e+04 
       4.975400923315e-02       1.745493949145e+04 
       5.008562927823e-02       1.736908762003e+04 
       5.042623222866e-02       1.728239160324e+04 
       5.077646498279e-02       1.719478935224e+04 
       5.113704216869e-02       1.710621247927e+04 
       5.150875556531e-02       1.701658541296e+04 
       5.189248515769e-02       1.692582435490e+04 
       5.228921216427e-02       1.683383603167e+04 
       5.270003445529e-02       1.674051619674e+04 
       5.312618488345e-02       1.664574782105e+04 
       5.356905317765e-02       1.654939888759e+04 
       5.403021221593e-02       1.645131968986e+04 
       5.451144970425e-02       1.635133948905e+04 
       5.501480655611e-02       1.624926234814e+04 
       5.554262360932e-02       1.614486188987e+04 
       5.609759874738e-02       1.603787464533e+04 
       5.668285703233e-02       1.592799153275e+04 
       5.730203711635e-02       1.581484681097e+04 
       5.795939798089e-02       1.569800367255e+04 
       5.865995091524e-02       1.557693519338e+04 
       5.940962247090e-02       1.545099894723e+04 
       6.021545461762e-02       1.531940290499e+04 
       6.108584783590e-02       1.518115925667e+04 
       6.203085009085e-02       1.503502170624e+04 
       6.306248698556e-02       1.487940043862e+04 
       6.419511120480e-02       1.471224804249e+04 
       6.544571474181e-02       1.453091047004e+04 
       6.683408391569e-02       1.433194303984e+04 
