# Matter power spectrum P(k) at redshift z=0
# for k=1.01338e-05 to 1.4771 h/Mpc,
# number of wavenumbers equal to 609
#    1:k (h/Mpc)              2:P (Mpc/h)^3        
       1.013377456655e-05       4.284486775745e+01 
       2.294230330421e-05       9.444030234977e+01 
       3.579469204984e-05       1.452166517888e+02 
       4.872513065057e-05       1.956875376889e+02 
       6.176836224554e-05       2.461485202902e+02 
       7.495998959935e-05       2.968541694853e+02 
       8.833679104763e-05       3.479426968651e+02 
       1.019370502164e-04       3.996189988386e+02 
       1.158009037089e-04       4.520576182282e+02 
       1.299707109862e-04       5.050701452432e+02 
       1.444914506785e-04       5.597334487019e+02 
       1.594111475102e-04       6.155031840250e+02 
       1.747813338635e-04       6.727654708383e+02 
       1.906575496664e-04       7.317151997862e+02 
       2.070998836858e-04       7.925907672405e+02 
       2.241735583157e-04       8.549597718684e+02 
       2.419495584101e-04       9.203318062789e+02 
       2.605053024267e-04       9.883782805028e+02 
       2.799253508548e-04       1.059020416617e+03 
       3.003021423091e-04       1.133274837666e+03 
       3.217367414033e-04       1.211163460383e+03 
       3.443395742114e-04       1.293065661624e+03 
       3.682311164023e-04       1.379392218226e+03 
       3.935424857409e-04       1.469541714813e+03 
       4.204158745512e-04       1.566593538235e+03 
       4.490047393809e-04       1.667621394940e+03 
       4.794736456209e-04       1.776331820555e+03 
       5.119976464838e-04       1.890125852367e+03 
       5.467610621729e-04       2.013774255868e+03 
       5.839555216041e-04       2.142454240061e+03 
       6.237771424958e-04       2.280934001676e+03 
       6.664227635687e-04       2.428895216832e+03 
       7.120852115351e-04       2.585485104832e+03 
       7.609476882096e-04       2.752255436816e+03 
       8.131774947738e-04       2.929525951542e+03 
       8.689194558736e-04       3.117620239976e+03 
       9.282895393797e-04       3.316249743919e+03 
       9.913692540377e-04       3.525730824700e+03 
       1.058201413398e-03       3.745353310381e+03 
       1.128787759873e-03       3.975402848376e+03 
       1.203088751087e-03       4.215344204008e+03 
       1.281025553506e-03       4.464408732145e+03 
       1.362484018473e-03       4.722043270865e+03 
       1.447320191040e-03       4.987335602800e+03 
       1.477104874446e-03       5.079811696320e+03 
       1.535366766148e-03       5.259537247656e+03 
       1.626439877125e-03       5.537584315947e+03 
       1.720345666764e-03       5.820639025378e+03 
       1.816886220426e-03       6.107926756131e+03 
       1.915864595709e-03       6.398581279212e+03 
       2.017088831474e-03       6.691454191993e+03 
       2.120374939163e-03       6.986029119375e+03 
       2.225548962542e-03       7.281686143055e+03 
       2.332448239367e-03       7.577679273364e+03 
       2.440922016502e-03       7.873424769193e+03 
       2.550831567507e-03       8.168388040235e+03 
       2.662049946733e-03       8.462169873641e+03 
       2.774461493054e-03       8.754273673376e+03 
       2.887961174107e-03       9.044314942717e+03 
       3.002453840905e-03       9.332047417863e+03 
       3.117853444498e-03       9.617164951313e+03 
       3.234082251368e-03       9.899458141748e+03 
       3.351070082397e-03       1.017865070336e+04 
       3.468753591236e-03       1.045457482168e+04 
       3.587075591264e-03       1.072715097934e+04 
       3.705984435537e-03       1.099611088766e+04 
       3.825433450844e-03       1.126145620865e+04 
       3.945380424747e-03       1.152305476278e+04 
       4.065787143148e-03       1.178084260453e+04 
       4.186618975047e-03       1.203475547743e+04 
       4.307844500789e-03       1.228473506955e+04 
       4.429435179969e-03       1.253073774398e+04 
       4.551365055185e-03       1.277275933740e+04 
       4.673610488041e-03       1.301076216654e+04 
       4.796149923994e-03       1.324471168615e+04 
       4.918963682951e-03       1.347464746288e+04 
       5.042033772742e-03       1.370054742728e+04 
       5.165343722954e-03       1.392241281831e+04 
       5.288878436779e-03       1.414029683186e+04 
       5.412624058873e-03       1.435421247688e+04 
       5.536567857360e-03       1.456413494581e+04 
       5.660698118409e-03       1.477005894892e+04 
       5.785004051911e-03       1.497200186260e+04 
       5.909475707030e-03       1.516998288798e+04 
       6.034103896489e-03       1.536409124595e+04 
       6.158880128619e-03       1.555445513044e+04 
       6.283796546300e-03       1.574110636059e+04 
       6.408845872027e-03       1.592456290423e+04 
       6.534021358436e-03       1.610483123843e+04 
       6.659316743674e-03       1.627913742997e+04 
       6.784726211118e-03       1.645276074564e+04 
       6.910244352940e-03       1.661816870771e+04 
       7.035866137147e-03       1.678433744414e+04 
       7.161586877698e-03       1.694700432067e+04 
       7.287402207400e-03       1.710620469308e+04 
       7.413308053280e-03       1.726197394256e+04 
       7.539300614200e-03       1.740624349581e+04 
       7.665376340463e-03       1.755453148202e+04 
       7.791531915232e-03       1.769593338948e+04 
       7.917764237577e-03       1.784059878439e+04 
       8.044070406982e-03       1.797401095056e+04 
       8.170447709187e-03       1.811248585261e+04 
       8.296893603219e-03       1.823772191915e+04 
       8.423405709516e-03       1.836392977166e+04 
       8.549981799034e-03       1.849023385143e+04 
       8.676619783237e-03       1.860988636199e+04 
       8.803317704917e-03       1.872999076790e+04 
       8.930073729728e-03       1.884534544996e+04 
       9.056886138414e-03       1.895434551801e+04 
       9.183753319633e-03       1.906552191219e+04 
       9.310673763350e-03       1.917383149903e+04 
       9.437646054728e-03       1.927403168873e+04 
       9.564668868505e-03       1.937659154615e+04 
       9.691740963774e-03       1.946928350467e+04 
       9.818861179176e-03       1.956204260870e+04 
       9.946028428436e-03       1.965610914061e+04 
       1.007324169624e-02       1.974391244497e+04 
       1.020050003440e-02       1.983492059391e+04 
       1.032780255834e-02       1.991617533673e+04 
       1.045514844373e-02       1.999421022877e+04 
       1.058253692354e-02       2.007262975732e+04 
       1.070996728512e-02       2.014888681747e+04 
       1.083743886758e-02       2.022288929363e+04 
       1.096495105938e-02       2.029265312797e+04 
       1.109250329603e-02       2.036093412383e+04 
       1.122009505795e-02       2.042888430669e+04 
       1.134772586855e-02       2.049446316986e+04 
       1.147539529239e-02       2.055245680018e+04 
       1.160310293343e-02       2.061359117248e+04 
       1.173084843349e-02       2.066745124180e+04 
       1.185863147080e-02       2.072287203988e+04 
       1.198645175856e-02       2.077252022675e+04 
       1.211430904370e-02       2.082460804093e+04 
       1.224220310574e-02       2.087013208974e+04 
       1.237013375559e-02       2.091906791217e+04 
       1.249810083461e-02       2.095862689037e+04 
       1.262610421365e-02       2.099946784073e+04 
       1.275414379210e-02       2.103910235160e+04 
       1.288221949716e-02       2.107772205077e+04 
       1.301033128304e-02       2.111361373744e+04 
       1.313847913026e-02       2.114324488276e+04 
       1.326666304501e-02       2.117615258756e+04 
       1.339488305855e-02       2.120257529536e+04 
       1.352313922668e-02       2.123085118828e+04 
       1.365143162921e-02       2.125915365907e+04 
       1.377976036951e-02       2.127778568839e+04 
       1.390812557410e-02       2.130154282486e+04 
       1.403652739226e-02       2.132189714183e+04 
       1.416496599566e-02       2.133695416082e+04 
       1.429344157809e-02       2.135580294292e+04 
       1.442195435517e-02       2.136868441768e+04 
       1.455050456408e-02       2.138273968203e+04 
       1.467909246336e-02       2.139171492857e+04 
       1.477104874446e-02       2.139730241479e+04 
       1.480771833271e-02       2.140098864940e+04 
       1.493638247285e-02       2.140628568279e+04 
       1.506508520536e-02       2.141233757860e+04 
       1.519382687260e-02       2.141589410417e+04 
       1.532260783757e-02       2.142072315009e+04 
       1.545142848392e-02       2.142212611995e+04 
       1.558028921584e-02       2.141994864406e+04 
       1.570919045810e-02       2.141784944601e+04 
       1.583813265601e-02       2.141383653165e+04 
       1.596711627547e-02       2.140746221965e+04 
       1.609614180300e-02       2.140201352065e+04 
       1.622520974582e-02       2.139251668786e+04 
       1.635432063190e-02       2.138508940916e+04 
       1.648347501011e-02       2.137214586417e+04 
       1.661267345030e-02       2.135999574650e+04 
       1.674191654343e-02       2.134645153592e+04 
       1.687120490178e-02       2.133191043434e+04 
       1.700053915907e-02       2.131513675820e+04 
       1.712991997066e-02       2.129747236919e+04 
       1.725934801378e-02       2.127800270051e+04 
       1.738882398772e-02       2.125840023981e+04 
       1.751834861411e-02       2.123939708287e+04 
       1.764792263714e-02       2.121408508544e+04 
       1.777754682385e-02       2.119255003846e+04 
       1.790722196443e-02       2.116746026736e+04 
       1.803694887250e-02       2.113891715352e+04 
       1.816672838546e-02       2.111152219604e+04 
       1.829656136484e-02       2.108338949861e+04 
       1.842644869659e-02       2.105554131818e+04 
       1.855639129154e-02       2.102337183162e+04 
       1.868639008574e-02       2.099146883453e+04 
       1.881644604088e-02       2.095908951809e+04 
       1.894656014472e-02       2.092458050244e+04 
       1.907673341150e-02       2.089149543977e+04 
       1.920696688245e-02       2.085418881986e+04 
       1.933726162626e-02       2.081929539558e+04 
       1.946761873952e-02       2.078091294124e+04 
       1.959803934731e-02       2.074095649691e+04 
       1.972852460368e-02       2.070162844692e+04 
       1.985907569223e-02       2.066205940231e+04 
       1.998969382666e-02       2.061943564934e+04 
       2.012038025140e-02       2.057717045436e+04 
       2.025113624218e-02       2.053551419845e+04 
       2.038196310668e-02       2.049010722305e+04 
       2.051286218518e-02       2.044592312993e+04 
       2.064383485127e-02       2.040029073442e+04 
       2.077488251247e-02       2.035299131054e+04 
       2.090600661104e-02       2.030684367275e+04 
       2.103720862465e-02       2.025781468602e+04 
       2.116849006722e-02       2.020959891969e+04 
       2.129985248962e-02       2.015930380852e+04 
       2.143129748058e-02       2.011074102444e+04 
       2.156282666749e-02       2.005815023788e+04 
       2.169444171724e-02       2.000701621535e+04 
       2.182614433719e-02       1.995470392175e+04 
       2.195793627604e-02       1.990284098126e+04 
       2.208981932478e-02       1.984790150473e+04 
       2.222179531774e-02       1.979491698234e+04 
       2.235386613352e-02       1.973888005167e+04 
       2.248603369609e-02       1.968316336292e+04 
       2.261829997586e-02       1.962736213017e+04 
       2.275066699079e-02       1.957053283062e+04 
       2.288313680753e-02       1.951392421759e+04 
       2.301571154263e-02       1.945578777063e+04 
       2.314839336373e-02       1.939731271977e+04 
       2.328118449084e-02       1.933925417098e+04 
       2.341408719764e-02       1.927950589130e+04 
       2.354710381281e-02       1.921949267311e+04 
       2.368023672143e-02       1.915998890237e+04 
       2.381348836637e-02       1.909918046858e+04 
       2.394686124984e-02       1.903744356536e+04 
       2.408035793482e-02       1.897676797046e+04 
       2.421398104669e-02       1.891392093328e+04 
       2.434773327483e-02       1.885157856668e+04 
       2.448161737430e-02       1.878858998280e+04 
       2.461563616755e-02       1.872599385218e+04 
       2.474979254623e-02       1.866255328467e+04 
       2.488408947302e-02       1.859800080529e+04 
       2.501852998351e-02       1.853319559573e+04 
       2.515311718821e-02       1.846824801625e+04 
       2.528785427458e-02       1.840340060401e+04 
       2.542274450907e-02       1.833796019300e+04 
       2.555779123936e-02       1.827265208678e+04 
       2.569299789658e-02       1.820595684392e+04 
       2.582836799764e-02       1.813958781409e+04 
       2.596390514759e-02       1.807315586899e+04 
       2.609961304217e-02       1.800621172148e+04 
       2.623549547034e-02       1.793893528053e+04 
       2.637155631696e-02       1.787159577405e+04 
       2.650779956550e-02       1.780425996664e+04 
       2.664422930097e-02       1.773661326506e+04 
       2.678084971280e-02       1.766834550250e+04 
       2.691766509795e-02       1.759993245030e+04 
       2.705467986405e-02       1.753103054444e+04 
       2.719189853268e-02       1.746287477683e+04 
       2.732932574283e-02       1.739373142421e+04 
       2.746696625436e-02       1.732441167549e+04 
       2.760482495171e-02       1.725516214018e+04 
       2.774290684767e-02       1.718546744086e+04 
       2.788121708736e-02       1.711640999070e+04 
       2.801976095228e-02       1.704639369354e+04 
       2.815854386460e-02       1.697619290777e+04 
       2.829757139152e-02       1.690626907620e+04 
       2.843684924990e-02       1.683638317860e+04 
       2.857638331102e-02       1.676599529675e+04 
       2.871617960550e-02       1.669612539599e+04 
       2.885624432847e-02       1.662517525368e+04 
       2.899658384491e-02       1.655464049353e+04 
       2.913720469524e-02       1.648392280727e+04 
       2.927811360109e-02       1.641384066094e+04 
       2.941931747136e-02       1.634274864365e+04 
       2.956082340847e-02       1.627205681285e+04 
       2.970263871495e-02       1.620109728844e+04 
       2.984477090020e-02       1.612990163308e+04 
       2.998722768767e-02       1.605902562451e+04 
       3.013001702220e-02       1.598792667096e+04 
       3.027314707781e-02       1.591708378880e+04 
       3.041662626574e-02       1.584585269752e+04 
       3.056046324289e-02       1.577520236291e+04 
       3.070466692058e-02       1.570396443950e+04 
       3.084924647379e-02       1.563263974470e+04 
       3.099421135073e-02       1.556134000303e+04 
       3.113957128289e-02       1.549026134590e+04 
       3.128533629553e-02       1.541928469862e+04 
       3.143151671868e-02       1.534825759434e+04 
       3.157812319863e-02       1.527758242803e+04 
       3.172516670997e-02       1.520599327018e+04 
       3.187265856824e-02       1.513537469937e+04 
       3.202061044308e-02       1.506428437652e+04 
       3.216903437219e-02       1.499307921742e+04 
       3.231794277578e-02       1.492217953797e+04 
       3.246734847192e-02       1.485144804212e+04 
       3.261726469250e-02       1.478062888064e+04 
       3.276770510011e-02       1.470972181133e+04 
       3.291868380571e-02       1.463926520426e+04 
       3.307021538727e-02       1.456838514628e+04 
       3.322231490932e-02       1.449796469312e+04 
       3.337499794355e-02       1.442732202603e+04 
       3.352828059055e-02       1.435682930771e+04 
       3.368217950265e-02       1.428639078396e+04 
       3.383671190803e-02       1.421621776971e+04 
       3.399189563617e-02       1.414628441307e+04 
       3.414774914469e-02       1.407596195750e+04 
       3.430429154768e-02       1.400586032354e+04 
       3.446154264569e-02       1.393566547329e+04 
       3.461952295740e-02       1.386583631477e+04 
       3.477825375311e-02       1.379584401889e+04 
       3.493775709025e-02       1.372640892338e+04 
       3.509805585096e-02       1.365653710785e+04 
       3.525917378193e-02       1.358698513964e+04 
       3.542113553667e-02       1.351745728462e+04 
       3.558396672040e-02       1.344823415066e+04 
       3.574769393764e-02       1.337878611818e+04 
       3.591234484295e-02       1.331000933454e+04 
       3.607794819479e-02       1.324077222249e+04 
       3.624453391288e-02       1.317156019887e+04 
       3.641213313934e-02       1.310264438800e+04 
       3.658077830388e-02       1.303384292734e+04 
       3.675050319330e-02       1.296516672809e+04 
       3.692134302583e-02       1.289659227940e+04 
       3.709333453049e-02       1.282812749024e+04 
       3.726651603201e-02       1.275954036577e+04 
       3.744092754180e-02       1.269116470615e+04 
       3.761661085545e-02       1.262298563150e+04 
       3.779360965720e-02       1.255477266542e+04 
       3.797196963232e-02       1.248671190521e+04 
       3.815173858773e-02       1.241867877766e+04 
       3.833296658184e-02       1.235090208996e+04 
       3.851570606439e-02       1.228311555667e+04 
       3.870001202727e-02       1.221522246818e+04 
       3.888594216718e-02       1.214763322976e+04 
       3.907355706155e-02       1.207991166693e+04 
       3.926292035875e-02       1.201260066895e+04 
       3.945409898418e-02       1.194504563854e+04 
       3.964716336369e-02       1.187753947876e+04 
       3.984218766625e-02       1.181015254792e+04 
       4.003925006778e-02       1.174295931368e+04 
       4.023843303832e-02       1.167555055481e+04 
       4.043982365517e-02       1.160834691643e+04 
       4.064351394477e-02       1.154127353460e+04 
       4.084960125644e-02       1.147405372961e+04 
       4.105818867172e-02       1.140693647536e+04 
       4.126938545322e-02       1.133976387042e+04 
       4.148330753782e-02       1.127265547772e+04 
       4.170007807927e-02       1.120558239955e+04 
       4.191982804631e-02       1.113865143605e+04 
       4.214269688323e-02       1.107138044597e+04 
       4.236883324053e-02       1.100424261926e+04 
       4.259839578493e-02       1.093701637836e+04 
       4.283155409889e-02       1.086974844730e+04 
       4.306848968182e-02       1.080245281646e+04 
       4.330939706670e-02       1.073513637133e+04 
       4.355448506819e-02       1.066768987119e+04 
       4.380397818105e-02       1.060004383512e+04 
       4.405811815057e-02       1.053231755770e+04 
       4.431716574067e-02       1.046449274149e+04 
       4.458140272956e-02       1.039653777813e+04 
       4.485113416843e-02       1.032839252684e+04 
       4.512669094491e-02       1.026008770333e+04 
       4.540843270085e-02       1.019150921723e+04 
       4.569675116345e-02       1.012277301725e+04 
       4.599207396032e-02       1.005364697280e+04 
       4.629486900289e-02       9.984323161597e+03 
       4.660564954030e-02       9.914622718690e+03 
       4.692498000664e-02       9.844613391343e+03 
       4.725348281133e-02       9.774213244743e+03 
       4.759184625479e-02       9.703272125743e+03 
       4.794083379285e-02       9.631953218517e+03 
       4.830129492428e-02       9.560015292655e+03 
       4.867417804083e-02       9.487535803039e+03 
       4.906054566041e-02       9.414353346903e+03 
       4.946159256774e-02       9.340465625600e+03 
       4.987866751805e-02       9.265770262548e+03 
       5.031329932703e-02       9.190137231599e+03 
       5.076722838374e-02       9.113477801784e+03 
       5.124244489489e-02       9.035696563146e+03 
       5.174123551450e-02       8.956675563817e+03 
       5.226624044751e-02       8.876042701963e+03 
       5.282052365643e-02       8.793839237901e+03 
       5.340765945559e-02       8.709694632483e+03 
       5.403183953665e-02       8.623330266266e+03 
       5.469800527703e-02       8.534371517949e+03 
       5.541201087853e-02       8.442399347633e+03 
       5.618082310064e-02       8.346744270746e+03 
       5.701276230868e-02       8.246786720560e+03 
       5.791778568491e-02       8.141464319246e+03 
       5.890780376990e-02       8.029599981715e+03 
