# dimensionless total lensed [l(l+1)/2pi] C_l's
# for l=2 to 2600, i.e. number of multipoles equal to 2599
#
# -> if you prefer output in CAMB/HealPix/LensPix units/order, set 'format' to 'camb' in input file
# -> if you don't want to see such a header, set 'headers' to 'no' in input file
# -> for CMB lensing (phi), these are C_l^phi-phi for the lensing potential.
#    Remember the conversion factors:
#    C_l^dd (deflection) = l(l+1) C_l^phi-phi
#    C_l^gg (shear/convergence) = 1/4 (l(l+1))^2 C_l^phi-phi
#
# 1:l     2:TT                     3:EE                     4:TE                     5:BB                     6:phiphi                 7:TPhi                   8:Ephi               
    2       2.458774535386e-10       5.238150809529e-15       4.131485463779e-13       2.253389922991e-19       8.605130288218e-09       7.909262606988e-10      -2.131194770464e-12 
    3       2.246529247705e-10       7.159447126456e-15       5.374332864154e-13       4.507086558962e-19       5.366970562208e-09       5.701369908412e-10      -1.603626761782e-12 
    4       2.034978258302e-10       6.546214153858e-15       5.262751666757e-13       7.512518695111e-19       3.769788448886e-09       4.370822531768e-10      -1.066554318724e-12 
    5       1.866886076443e-10       4.610448580108e-15       4.468078476596e-13       1.127016639476e-18       2.833142433564e-09       3.488882321122e-10      -6.281922276630e-13 
    6       1.740138124063e-10       2.704077126976e-15       3.493425508829e-13       1.578068668128e-18       2.223829590952e-09       2.865219760859e-10      -3.001373792908e-13 
    7       1.645203931434e-10       1.480889237344e-15       2.618583510528e-13       2.104494566228e-18       1.800108221172e-09       2.402865623101e-10      -7.021552327696e-14 
    8       1.573521517808e-10       9.039212316686e-16       1.967483129029e-13       2.706405163228e-18       1.490905441795e-09       2.047941827406e-10       7.989068057946e-14 
    9       1.519908986281e-10       6.719318899429e-16       1.588716732527e-13       3.383938666003e-18       1.257230169757e-09       1.769070220474e-10       1.653190903892e-13 
   10       1.479787347017e-10       5.616747376848e-16       1.454138025132e-13       4.137263411640e-18       1.075923633871e-09       1.546556266592e-10       1.968814051075e-13 
   11       1.450451044825e-10       4.930704509793e-16       1.447959922213e-13       4.966579968362e-18       9.198659683663e-10       1.363773868790e-10       1.875338032207e-13 
   12       1.430651425278e-10       4.512398390519e-16       1.455151769235e-13       5.872122360596e-18       8.050042779919e-10       1.226034698554e-10       1.437303003597e-13 
   13       1.417029681770e-10       4.283064827562e-16       1.442286192787e-13       6.854158228667e-18       7.105668701554e-10       1.097171777600e-10       8.974765847590e-14 
   14       1.407988186613e-10       4.132065515410e-16       1.426101803377e-13       7.912987779214e-18       6.318649134689e-10       9.825977528645e-11       3.809821344138e-14 
   15       1.403550047935e-10       3.987888724926e-16       1.419124034084e-13       9.048941437172e-18       5.654316258132e-10       9.022295307557e-11       7.587126249307e-16 
   16       1.402370877049e-10       3.872452615629e-16       1.422466748319e-13       1.026237617169e-17       5.085998490397e-10       8.173977804977e-11      -1.884876079358e-14 
   17       1.403556170335e-10       3.888557852775e-16       1.437780134660e-13       1.155367053368e-17       4.598570512065e-10       7.401138974805e-11      -2.389506375110e-14 
   18       1.406776259042e-10       4.151617608700e-16       1.471158301469e-13       1.292321923266e-17       4.175576832753e-10       6.776824218694e-11      -1.909664926657e-14 
   19       1.412436065839e-10       4.686221367097e-16       1.525033851333e-13       1.437142235498e-17       3.809985956542e-10       6.267587057840e-11      -1.059568876757e-14 
   20       1.420269054998e-10       5.470350068747e-16       1.598159551735e-13       1.589868516376e-17       3.488002185717e-10       5.809983313579e-11      -5.562413138674e-15 
   21       1.429995393310e-10       6.471789356012e-16       1.686275305972e-13       1.750539981309e-17       3.203812682364e-10       5.376489703880e-11      -4.921289918823e-15 
   22       1.440899485961e-10       7.648252428154e-16       1.782974141992e-13       1.919194603952e-17       2.949763833152e-10       4.951277373686e-11      -7.232334688057e-15 
   23       1.453117411093e-10       8.990621917109e-16       1.884987510395e-13       2.095867389240e-17       2.723486394920e-10       4.563516177755e-11      -1.128709430344e-14 
   24       1.466717562705e-10       1.049575502670e-15       1.988860576198e-13       2.280590431755e-17       2.521406139289e-10       4.248041639824e-11      -1.572894339235e-14 
   25       1.481553822888e-10       1.215138399537e-15       2.088690135393e-13       2.473391426361e-17       2.340759182459e-10       3.984671874096e-11      -1.941715904491e-14 
   26       1.497226645505e-10       1.394431954168e-15       2.177867228428e-13       2.674293687798e-17       2.177313313477e-10       3.734571426919e-11      -2.128917881252e-14 
   27       1.513790978359e-10       1.588712465707e-15       2.254610031366e-13       2.883315163170e-17       2.029210684872e-10       3.494603816622e-11      -2.103001066163e-14 
   28       1.531293639657e-10       1.800235792087e-15       2.318982724372e-13       3.100468492316e-17       1.894320257867e-10       3.271061645165e-11      -1.873507260367e-14 
   29       1.549783167158e-10       2.031204140935e-15       2.371878995136e-13       3.325761279664e-17       1.772007630998e-10       3.065884048435e-11      -1.516400240902e-14 
   30       1.569121686952e-10       2.284069344551e-15       2.414943510225e-13       3.559195179691e-17       1.660894786801e-10       2.878051448018e-11      -1.151255648470e-14 
   31       1.589024516699e-10       2.561242293687e-15       2.450110487502e-13       3.800766249928e-17       1.558656073410e-10       2.705048155616e-11      -9.013963892582e-15 
   32       1.609510765314e-10       2.863597028905e-15       2.478028349632e-13       4.050468094622e-17       1.464781504106e-10       2.546276710171e-11      -7.838927123364e-15 
   33       1.630586827335e-10       3.191386502109e-15       2.499076003518e-13       4.308289189976e-17       1.378659205225e-10       2.400612308284e-11      -7.781670860412e-15 
   34       1.652167529354e-10       3.544747563554e-15       2.513345757570e-13       4.574213350298e-17       1.299139287947e-10       2.265999344952e-11      -8.533439596859e-15 
   35       1.674266880475e-10       3.924189383244e-15       2.519146006797e-13       4.848225545536e-17       1.225820112150e-10       2.141667512437e-11      -9.676069706270e-15 
   36       1.696851963013e-10       4.330256675517e-15       2.513932983230e-13       5.130307666847e-17       1.158103829193e-10       2.026504789344e-11      -1.067130467092e-14 
   37       1.719839248236e-10       4.763480826270e-15       2.495162631310e-13       5.420439663838e-17       1.095100798953e-10       1.918898256980e-11      -1.099954699612e-14 
   38       1.743294042339e-10       5.224680263472e-15       2.461981581013e-13       5.718609471649e-17       1.036649828697e-10       1.818510346317e-11      -1.066029379334e-14 
   39       1.767282842395e-10       5.714754400229e-15       2.414081678672e-13       6.024806257622e-17       9.825714231939e-11       1.724980582301e-11      -9.835917436192e-15 
   40       1.791811523298e-10       6.234602810982e-15       2.351255934268e-13       6.339017792814e-17       9.323579888887e-11       1.637387613948e-11      -8.762340445038e-15 
   41       1.816840803961e-10       6.785079825527e-15       2.273479999599e-13       6.661233708895e-17       8.853500086082e-11       1.554601283755e-11      -7.690627128346e-15 
   42       1.842354543125e-10       7.366841348879e-15       2.181172007170e-13       6.991456484292e-17       8.414023870965e-11       1.476593864090e-11      -6.747977802804e-15 
   43       1.868302584088e-10       7.980447605481e-15       2.075028867384e-13       7.329694076163e-17       8.003868194459e-11       1.403473621536e-11      -6.037605227851e-15 
   44       1.894575636058e-10       8.626400527661e-15       1.955970726165e-13       7.675957239491e-17       7.619914059829e-11       1.335100033517e-11      -5.677607356229e-15 
   45       1.921052185729e-10       9.305180042767e-15       1.824780159044e-13       8.030260806689e-17       7.258313679191e-11       1.271168570115e-11      -5.759946159596e-15 
   46       1.947767915067e-10       1.001737398430e-14       1.680863063834e-13       8.392627395859e-17       6.918549652982e-11       1.211545241338e-11      -6.211042854558e-15 
   47       1.974788300337e-10       1.076358116263e-14       1.523137578918e-13       8.763085234671e-17       6.600341729564e-11       1.155995990757e-11      -6.890745533429e-15 
   48       2.002158996035e-10       1.154437388196e-14       1.350365326973e-13       9.141667526315e-17       6.302427941997e-11       1.104074676891e-11      -7.628828455298e-15 
   49       2.029903754042e-10       1.236029678558e-14       1.161141857575e-13       9.528412757829e-17       6.022491197532e-11       1.055107969322e-11      -8.223316240630e-15 
   50       2.058029800718e-10       1.321180543237e-14       9.541941458093e-14       9.923362121941e-17       5.757860636756e-11       1.008391103543e-11      -8.495660662308e-15 
   51       2.086550516429e-10       1.409906505005e-14       7.293904608435e-14       1.032655024225e-16       5.508010458349e-11       9.638728280667e-12      -8.477815460412e-15 
   52       2.115465315246e-10       1.502209515970e-14       4.869880942151e-14       1.073801246349e-16       5.272612477495e-11       9.216302704793e-12      -8.273044138841e-15 
   53       2.144751036209e-10       1.598082117381e-14       2.273550381109e-14       1.115778768632e-16       5.050784564050e-11       8.816692701573e-12      -8.004481416675e-15 
   54       2.174360213433e-10       1.697507040528e-14      -4.902512233687e-15       1.158591853992e-16       4.841053691785e-11       8.439191971488e-12      -7.816132839074e-15 
   55       2.204241866795e-10       1.800468487864e-14      -3.417331876353e-14       1.202244491586e-16       4.641794482904e-11       8.082667959649e-12      -7.836994912142e-15 
   56       2.234413885171e-10       1.906990172440e-14      -6.510178448997e-14       1.246738229394e-16       4.452757069039e-11       7.746794318911e-12      -8.060687710857e-15 
   57       2.264905594715e-10       2.017106029234e-14      -9.773335202397e-14       1.292073833416e-16       4.273854061568e-11       7.431033865718e-12      -8.437671323895e-15 
   58       2.295735979823e-10       2.130849417634e-14      -1.321170903361e-13       1.338251895926e-16       4.104700286552e-11       7.134239345864e-12      -8.909077777292e-15 
   59       2.326912830671e-10       2.248253177414e-14      -1.683059258029e-13       1.385272826857e-16       3.944594359756e-11       6.854616827832e-12      -9.406273782646e-15 
   60       2.358431890755e-10       2.369349684715e-14      -2.063568732536e-13       1.433136845183e-16       3.792500261687e-11       6.589689096127e-12      -9.850423485314e-15 
   61       2.390284551656e-10       2.494157592912e-14      -2.463167622962e-13       1.481843560477e-16       3.647335916631e-11       6.336924777646e-12      -1.017031083034e-14 
   62       2.422484884159e-10       2.622638450786e-14      -2.881751496870e-13       1.531390627302e-16       3.508956305355e-11       6.095873552625e-12      -1.036147057176e-14 
   63       2.455047189470e-10       2.754730401857e-14      -3.319011995320e-13       1.581774772119e-16       3.377359331432e-11       5.866447436682e-12      -1.043961434524e-14 
   64       2.487977417627e-10       2.890360280990e-14      -3.774570307127e-13       1.632992155279e-16       3.252389777625e-11       5.648282162788e-12      -1.042368154620e-14 
   65       2.521272586248e-10       3.029443247899e-14      -4.247974877080e-13       1.685038349402e-16       3.133730621926e-11       5.440721697804e-12      -1.033598144186e-14 
   66       2.554920199255e-10       3.171882420647e-14      -4.738699114174e-13       1.737908317759e-16       3.020894353589e-11       5.242802759026e-12      -1.020233528331e-14 
   67       2.588897665619e-10       3.317568509142e-14      -5.246139099836e-13       1.791596392655e-16       2.913214289161e-11       5.053239330720e-12      -1.005221841759e-14 
   68       2.623182308390e-10       3.466394476597e-14      -5.769736128827e-13       1.846097106213e-16       2.810020553789e-11       4.870785638509e-12      -9.912488357348e-15 
   69       2.657785046164e-10       3.618303792887e-14      -6.309378287889e-13       1.901407926529e-16       2.711228843698e-11       4.695445088345e-12      -9.786775579336e-15 
   70       2.692722523515e-10       3.773251345115e-14      -6.865076504328e-13       1.957527039649e-16       2.616855910370e-11       4.527479600758e-12      -9.672152868436e-15 
   71       2.728006819706e-10       3.931189292288e-14      -7.436847797685e-13       2.014452546392e-16       2.526841560733e-11       4.367047127042e-12      -9.565158335579e-15 
   72       2.763645138272e-10       4.092067083162e-14      -8.024716180618e-13       2.072182462539e-16       2.441044696091e-11       4.214195845028e-12      -9.461773487798e-15 
   73       2.799639496610e-10       4.255831474087e-14      -8.628713559774e-13       2.130714719009e-16       2.359239351053e-11       4.068858354850e-12      -9.357401298291e-15 
   74       2.835986415563e-10       4.422426546857e-14      -9.248880636674e-13       2.190047162044e-16       2.281110732470e-11       3.930845874716e-12      -9.246844276475e-15 
   75       2.872676609014e-10       4.591793726554e-14      -9.885267808588e-13       2.250177553393e-16       2.206251258362e-11       3.799842436675e-12      -9.124282538040e-15 
   76       2.909700175686e-10       4.763864173468e-14      -1.053785827205e-12       2.311104699641e-16       2.134260826612e-11       3.675474350008e-12      -8.984941480306e-15 
   77       2.947063953750e-10       4.938534317690e-14      -1.120631915328e-12       2.372832077571e-16       2.065077486291e-11       3.557546045679e-12      -8.830494374527e-15 
   78       2.984776781663e-10       5.115685874831e-14      -1.189020642104e-12       2.435364873308e-16       1.998700149531e-11       3.445836893949e-12      -8.664609697257e-15 
   79       3.022844082311e-10       5.295192939874e-14      -1.258903797478e-12       2.498708934776e-16       1.935087916930e-11       3.340025560238e-12      -8.491361436105e-15 
   80       3.061267665426e-10       5.476921848646e-14      -1.330229295020e-12       2.562870795031e-16       1.874158253793e-11       3.239685744314e-12      -8.315241806512e-15 
   81       3.100045530000e-10       5.660731039291e-14      -1.402941102484e-12       2.627857695603e-16       1.815785166384e-11       3.144281919485e-12      -8.141173968533e-15 
   82       3.139171666698e-10       5.846470913734e-14      -1.476979172363e-12       2.693677609826e-16       1.759797378172e-11       3.053165071792e-12      -7.974524743620e-15 
   83       3.178635860278e-10       6.033983699163e-14      -1.552279372454e-12       2.760339266179e-16       1.705976506078e-11       2.965568439200e-12      -7.821117331407e-15 
   84       3.218428091958e-10       6.223110828495e-14      -1.628778818725e-12       2.827851283125e-16       1.654109550675e-11       2.880782288254e-12      -7.685981049402e-15 
   85       3.258553017885e-10       6.413716791072e-14      -1.706433041846e-12       2.896219357723e-16       1.604160359808e-11       2.798720868009e-12      -7.569334551458e-15 
   86       3.299017539789e-10       6.605669000306e-14      -1.785201552421e-12       2.965448651567e-16       1.556123378413e-11       2.719442070077e-12      -7.469956931518e-15 
   87       3.339826299930e-10       6.798830614244e-14      -1.865042712740e-12       3.035544646122e-16       1.509970964389e-11       2.642975514525e-12      -7.386383110530e-15 
   88       3.380981560825e-10       6.993060523405e-14      -1.945913758126e-12       3.106513151128e-16       1.465652477680e-11       2.569321298109e-12      -7.316895326732e-15 
   89       3.422483084970e-10       7.188213338625e-14      -2.027770818298e-12       3.178360313003e-16       1.423093369371e-11       2.498448742495e-12      -7.259514625920e-15 
   90       3.464328014571e-10       7.384139378897e-14      -2.110568938715e-12       3.251092623245e-16       1.382194270765e-11       2.430295142486e-12      -7.211992351729e-15 
   91       3.506510751261e-10       7.580684659209e-14      -2.194262101935e-12       3.324716926841e-16       1.342830082476e-11       2.364764514245e-12      -7.171801635908e-15 
   92       3.549022835834e-10       7.777690878386e-14      -2.278803248966e-12       3.399240430664e-16       1.304849063517e-11       2.301726343525e-12      -7.136128888596e-15 
   93       3.591855904051e-10       7.974997074811e-14      -2.364143065984e-12       3.474669457230e-16       1.268108370498e-11       2.241048890733e-12      -7.102379603411e-15 
   94       3.635011323865e-10       8.172444904834e-14      -2.450226089366e-12       3.551005473293e-16       1.232588768066e-11       2.182707554962e-12      -7.069801276422e-15 
   95       3.678491792003e-10       8.369874139447e-14      -2.536994051606e-12       3.628248476709e-16       1.198295567013e-11       2.126690569345e-12      -7.038089976428e-15 
   96       3.722298310027e-10       8.567121077735e-14      -2.624387068106e-12       3.706398189162e-16       1.165223306322e-11       2.072965129397e-12      -7.006896348410e-15 
   97       3.766430106277e-10       8.764018557611e-14      -2.712343641577e-12       3.785454047350e-16       1.133355342600e-11       2.021476615588e-12      -6.975824163723e-15 
   98       3.810884557829e-10       8.960395966550e-14      -2.800800666447e-12       3.865415194162e-16       1.102663439512e-11       1.972147815934e-12      -6.944428870289e-15 
   99       3.855657112437e-10       9.156079252328e-14      -2.889693433269e-12       3.946280469862e-16       1.073107357204e-11       1.924878148571e-12      -6.912216142786e-15 
  100       3.900741210490e-10       9.350890933753e-14      -2.978955633122e-12       4.028048403268e-16       1.044634441746e-11       1.879542884341e-12      -6.878640432840e-15 
  101       3.946128206958e-10       9.544650111403e-14      -3.068519362019e-12       4.110717202936e-16       1.017179214554e-11       1.835992369370e-12      -6.843103519218e-15 
  102       3.991807293345e-10       9.737172478362e-14      -3.158315125314e-12       4.194284748337e-16       9.906629618302e-12       1.794051247652e-12      -6.804953058016e-15 
  103       4.037765419635e-10       9.928270330953e-14      -3.248271842106e-12       4.278748581045e-16       9.649933239872e-12       1.753517683631e-12      -6.763481132856e-15 
  104       4.083990150312e-10       1.011775768782e-13      -3.338318256882e-12       4.364107832950e-16       9.400849939091e-12       1.714207233994e-12      -6.718112863425e-15 
  105       4.130478839894e-10       1.030546641158e-13      -3.428387382142e-12       4.450369326575e-16       9.159258803646e-12       1.676092887009e-12      -6.669004370472e-15 
  106       4.177230557143e-10       1.049123229512e-13      -3.518412666912e-12       4.537542286220e-16       8.925191584966e-12       1.639182579195e-12      -6.616523260351e-15 
  107       4.224243216425e-10       1.067489021380e-13      -3.608326662733e-12       4.625636486828e-16       8.698627826740e-12       1.603475952090e-12      -6.561066410914e-15 
