# dimensionless total lensed [l(l+1)/2pi] C_l's
# for l=2 to 2600, i.e. number of multipoles equal to 2599
#
# -> if you prefer output in CAMB/HealPix/LensPix units/order, set 'format' to 'camb' in input file
# -> if you don't want to see such a header, set 'headers' to 'no' in input file
# -> for CMB lensing (phi), these are C_l^phi-phi for the lensing potential.
#    Remember the conversion factors:
#    C_l^dd (deflection) = l(l+1) C_l^phi-phi
#    C_l^gg (shear/convergence) = 1/4 (l(l+1))^2 C_l^phi-phi
#
# 1:l     2:TT                     3:EE                     4:TE                     5:BB                     6:phiphi                 7:TPhi                   8:Ephi               
    2       1.286892967962e-10       3.924974844972e-15       4.818482968292e-13       3.200870861598e-19       7.930160988806e-09       1.519346879657e-10      -1.857875212416e-12 
    3       1.220502907803e-10       5.447034619872e-15       5.147349493866e-13       6.402028032091e-19       4.995699986988e-09       1.200568038723e-10      -1.490871769851e-12 
    4       1.164389158496e-10       5.219702621270e-15       4.685167204184e-13       1.067071065797e-18       3.519245305963e-09       9.563970783790e-11      -1.069622943309e-12 
    5       1.125706327346e-10       3.903040639009e-15       3.911512165394e-13       1.600737576004e-18       2.651593495250e-09       7.758640592481e-11      -6.906397255141e-13 
    6       1.101113075152e-10       2.406068258244e-15       3.084782798370e-13       2.241265500251e-18       2.086888255561e-09       6.403146259045e-11      -3.857179607053e-13 
    7       1.087426995272e-10       1.308089838613e-15       2.352328450487e-13       2.988738890948e-18       1.695454369883e-09       5.362711439592e-11      -1.646625379194e-13 
    8       1.081588616323e-10       7.258443090221e-16       1.779497052941e-13       3.843266228444e-18       1.410961669921e-09       4.555394798067e-11      -2.365236275383e-14 
    9       1.081239722989e-10       4.993862158629e-16       1.382619733845e-13       4.804983824554e-18       1.195942150180e-09       3.924484815993e-11       4.932308175064e-14 
   10       1.085467076272e-10       4.240456929718e-16       1.147299603499e-13       5.874058823251e-18       1.028467092792e-09       3.421290280026e-11       7.082010011979e-14 
   11       1.092623803409e-10       3.791140688688e-16       1.042758858738e-13       7.050691542408e-18       8.641961843225e-10       3.056097623856e-11       5.912657615876e-14 
   12       1.101825804576e-10       3.366026376649e-16       1.032980141434e-13       8.335116922514e-18       7.585958798348e-10       2.675985501523e-11       3.020203690353e-14 
   13       1.113617331334e-10       3.102955945791e-16       1.083019542045e-13       9.727604883263e-18       6.715719920794e-10       2.380845079141e-11      -2.010284024882e-15 
   14       1.126371068392e-10       3.100472429741e-16       1.163389650286e-13       1.122845943541e-17       5.989099664594e-10       2.145674668913e-11      -2.860106771122e-14 
   15       1.140478342282e-10       3.291197350902e-16       1.253577045300e-13       1.283801645124e-17       5.375366683250e-10       1.926927085297e-11      -4.520664265182e-14 
   16       1.155441050410e-10       3.551279863719e-16       1.342231480765e-13       1.455664005998e-17       4.851753611783e-10       1.737054363684e-11      -5.069718597209e-14 
   17       1.171342870266e-10       3.830801863615e-16       1.424727105311e-13       1.638471770150e-17       4.401093682238e-10       1.570893965910e-11      -4.699835175756e-14 
   18       1.187861520839e-10       4.184470666119e-16       1.501994586174e-13       1.832265468959e-17       4.008683812029e-10       1.428946017530e-11      -3.766944095909e-14 
   19       1.205039225429e-10       4.684835853890e-16       1.577682074913e-13       2.037086320378e-17       3.668722151343e-10       1.308548859022e-11      -2.602811775835e-14 
   20       1.222591988786e-10       5.399512402979e-16       1.656566792067e-13       2.252976222479e-17       3.368403373644e-10       1.201184477706e-11      -1.573163835777e-14 
   21       1.240645313749e-10       6.330035833605e-16       1.742045579726e-13       2.479975865888e-17       3.103244296782e-10       1.105116140703e-11      -8.554476505856e-15 
   22       1.259151196842e-10       7.449367650948e-16       1.836445931264e-13       2.718124819668e-17       2.867130730368e-10       1.019510553459e-11      -5.426751636055e-15 
   23       1.278100086407e-10       8.745816729501e-16       1.938204500449e-13       2.967459731843e-17       2.656973187786e-10       9.446446812146e-12      -5.910986876556e-15 
   24       1.297292616360e-10       1.021037185530e-15       2.043776260948e-13       3.228014404372e-17       2.468064818644e-10       8.796498713963e-12      -8.819280045595e-15 
   25       1.316745747913e-10       1.184508094215e-15       2.149776084349e-13       3.499818214772e-17       2.298302888945e-10       8.209473448397e-12      -1.285443952416e-14 
   26       1.336402906803e-10       1.365271638406e-15       2.252324267173e-13       3.782896158758e-17       2.144734391031e-10       7.641566110969e-12      -1.654640778038e-14 
   27       1.356293873664e-10       1.562818378190e-15       2.347719968075e-13       4.077267779677e-17       2.005601796473e-10       7.111040381271e-12      -1.895019657201e-14 
   28       1.376381998165e-10       1.776611820542e-15       2.432508672240e-13       4.382947239103e-17       1.878587962079e-10       6.649352796814e-12      -1.938852080728e-14 
   29       1.396741735643e-10       2.008122065073e-15       2.505967143638e-13       4.699943477045e-17       1.763098575912e-10       6.253253815118e-12      -1.807656773162e-14 
   30       1.417360842077e-10       2.259714210824e-15       2.568495562098e-13       5.028259352930e-17       1.657948832013e-10       5.901689747757e-12      -1.565291416078e-14 
   31       1.438125716598e-10       2.533864498527e-15       2.620887278725e-13       5.367891984437e-17       1.561060689275e-10       5.569579891587e-12      -1.288163860025e-14 
   32       1.459083916356e-10       2.831988471417e-15       2.664062914519e-13       5.718835777975e-17       1.471971890485e-10       5.252767673562e-12      -1.026755960505e-14 
   33       1.480254011521e-10       3.155180383281e-15       2.699294634439e-13       6.081079793198e-17       1.390086900957e-10       4.951738135978e-12      -8.313369780491e-15 
   34       1.501588499885e-10       3.504428190328e-15       2.727805999372e-13       6.454608211091e-17       1.314300616822e-10       4.666427497654e-12      -7.469405232021e-15 
   35       1.523127494216e-10       3.880324070206e-15       2.749032031923e-13       6.839406124317e-17       1.244251027897e-10       4.401368365765e-12      -7.589750685045e-15 
   36       1.544881797230e-10       4.283235021756e-15       2.761741685739e-13       7.235455287104e-17       1.179401771471e-10       4.162151471949e-12      -8.278019596685e-15 
   37       1.566814140097e-10       4.713491014251e-15       2.764571730077e-13       7.642735275382e-17       1.118938632202e-10       3.952512835394e-12      -9.101035989394e-15 
   38       1.588944071495e-10       5.171811555040e-15       2.756346683615e-13       8.061233535562e-17       1.062722689341e-10       3.769248055622e-12      -9.859687312068e-15 
   39       1.611265632562e-10       5.659010800041e-15       2.735843698155e-13       8.490938519734e-17       1.010591361828e-10       3.605350341106e-12      -1.040064952125e-14 
   40       1.633711327539e-10       6.175881071502e-15       2.701694699237e-13       8.931837003396e-17       9.620679974446e-11       3.451114911558e-12      -1.054164868122e-14 
   41       1.656194731110e-10       6.723181764456e-15       2.652691092849e-13       9.383917415519e-17       9.165317588463e-11       3.296991166945e-12      -1.013781542338e-14 
   42       1.678769919356e-10       7.301606019827e-15       2.588839796384e-13       9.847181112828e-17       8.738599685946e-11       3.143737285706e-12      -9.310827198899e-15 
   43       1.701513487205e-10       7.911800193619e-15       2.510635148326e-13       1.032163478948e-16       8.339485362451e-11       2.995234214852e-12      -8.291488847382e-15 
   44       1.724477409353e-10       8.554369843485e-15       2.418786431484e-13       1.080728770424e-16       7.965188911845e-11       2.855727955329e-12      -7.361029961460e-15 
   45       1.747690766102e-10       9.229885967001e-15       2.313977705260e-13       1.130415308038e-16       7.612199724665e-11       2.728891410265e-12      -6.783073229919e-15 
   46       1.771172275870e-10       9.938911682216e-15       2.196032979312e-13       1.181225224231e-16       7.280034416724e-11       2.614652880031e-12      -6.568294691912e-15 
   47       1.794916644341e-10       1.068197937886e-14       2.064522178199e-13       1.233161212147e-16       6.968369070911e-11       2.511435721093e-12      -6.644452687349e-15 
   48       1.818887775269e-10       1.145958084931e-14       1.918989529513e-13       1.286226449978e-16       6.675906299500e-11       2.416979944677e-12      -6.920185092095e-15 
   49       1.843016174527e-10       1.227216535163e-14       1.758951210819e-13       1.340424631513e-16       6.400302474551e-11       2.328297223096e-12      -7.283887171649e-15 
   50       1.867228497369e-10       1.312011597346e-14       1.583922904381e-13       1.395759719784e-16       6.138887216053e-11       2.242459954204e-12      -7.626502118774e-15 
   51       1.891551667956e-10       1.400367565380e-14       1.393516737998e-13       1.452235058316e-16       5.891220918012e-11       2.159325340721e-12      -7.919789017897e-15 
   52       1.916032534639e-10       1.492299773254e-14       1.187366590246e-13       1.509854071436e-16       5.657105647199e-11       2.079472957121e-12      -8.157360136198e-15 
   53       1.940707139240e-10       1.587816300663e-14       9.650995592942e-14       1.568620537176e-16       5.435818915019e-11       2.003429709773e-12      -8.332628145689e-15 
   54       1.965599633723e-10       1.686917677195e-14       7.263350172608e-14       1.628538604791e-16       5.226078190629e-11       1.931664093055e-12      -8.438809279666e-15 
   55       1.990725464980e-10       1.789602004135e-14       4.707265116093e-14       1.689612151039e-16       5.026440724449e-11       1.864498604727e-12      -8.473193420080e-15 
   56       2.016104337470e-10       1.895882487509e-14       1.981018251916e-14       1.751842621642e-16       4.836700628185e-11       1.801834671563e-12      -8.451189335709e-15 
   57       2.041748573239e-10       2.005773742489e-14      -9.164394623699e-15       1.815230684275e-16       4.656776701420e-11       1.743349328476e-12      -8.395774111447e-15 
   58       2.067658228864e-10       2.119286674505e-14      -3.985874846439e-14       1.879776834745e-16       4.486289405419e-11       1.688562334162e-12      -8.333697627955e-15 
   59       2.093820178414e-10       2.236428394507e-14      -7.227765259940e-14       1.945481388743e-16       4.324542336402e-11       1.636827238615e-12      -8.295651962179e-15 
   60       2.120207196410e-10       2.357202134238e-14      -1.064229136525e-13       2.012344473595e-16       4.170503698801e-11       1.587322450647e-12      -8.316440787861e-15 
   61       2.146791194124e-10       2.481603562715e-14      -1.422933634901e-13       2.080365603338e-16       4.023097868496e-11       1.539268103527e-12      -8.425395969187e-15 
   62       2.173588474897e-10       2.609608961225e-14      -1.798849975542e-13       2.149542311143e-16       3.882198471040e-11       1.492653742631e-12      -8.614730427409e-15 
   63       2.200623055791e-10       2.741184231642e-14      -2.191907392948e-13       2.219871193891e-16       3.747826348926e-11       1.447658867591e-12      -8.864350011606e-15 
   64       2.227912951920e-10       2.876288066003e-14      -2.602003093913e-13       2.291348280715e-16       3.619850625630e-11       1.404439814299e-12      -9.150842201023e-15 
   65       2.255469708484e-10       3.014871747594e-14      -3.029001554297e-13       2.363969011532e-16       3.497980017799e-11       1.363127986833e-12      -9.447336056401e-15 
   66       2.283297932811e-10       3.156878952024e-14      -3.472733815788e-13       2.437728215574e-16       3.381754147433e-11       1.323828089372e-12      -9.723362171310e-15 
   67       2.311394826385e-10       3.302245548306e-14      -3.932996782678e-13       2.512620089915e-16       3.270534854072e-11       1.286616358118e-12      -9.944712623472e-15 
   68       2.339755937585e-10       3.450902173138e-14      -4.409587532753e-13       2.588639028605e-16       3.163679514838e-11       1.251528117427e-12      -1.008127978777e-14 
   69       2.368394819511e-10       3.602783004094e-14      -4.902415895076e-13       2.665782353135e-16       3.061121205556e-11       1.218521472412e-12      -1.013273025179e-14 
   70       2.397326532979e-10       3.757818414934e-14      -5.411413524923e-13       2.744048099211e-16       2.962891028513e-11       1.187503049452e-12      -1.010780542414e-14 
   71       2.426561474925e-10       3.915932233984e-14      -5.936501096798e-13       2.823434215378e-16       2.868942545315e-11       1.158336016523e-12      -1.001686582868e-14 
   72       2.456105069536e-10       4.077041616151e-14      -6.477588496709e-13       2.903938563316e-16       2.779147744007e-11       1.130838042084e-12      -9.871955118807e-15 
   73       2.485957459387e-10       4.241056914917e-14      -7.034575014433e-13       2.985558918116e-16       2.693293006187e-11       1.104779253956e-12      -9.686864091775e-15 
   74       2.516113196568e-10       4.407881554355e-14      -7.607349535791e-13       3.068292968568e-16       2.611075074132e-11       1.079880198206e-12      -9.477194702958e-15 
   75       2.546560933822e-10       4.577411901125e-14      -8.195790734913e-13       3.152138317446e-16       2.532097017906e-11       1.055809798031e-12      -9.260424080147e-15 
   76       2.577289361005e-10       4.749540829097e-14      -8.799735163887e-13       3.237093627816e-16       2.455968343555e-11       1.032264363192e-12      -9.052600184507e-15 
   77       2.608306947028e-10       4.924169446568e-14      -9.418874378708e-13       3.323162302665e-16       2.382635307873e-11       1.009225763850e-12      -8.857591637882e-15 
   78       2.639625253529e-10       5.101197284957e-14      -1.005283931591e-12       3.410349479905e-16       2.312103791039e-11       9.867468464052e-13      -8.675984742907e-15 
   79       2.671252831040e-10       5.280518744473e-14      -1.070123027247e-12       3.498660969276e-16       2.244338632499e-11       9.648741865523e-13      -8.508272951598e-15 
   80       2.703195038186e-10       5.462023041847e-14      -1.136361643978e-12       3.588103276130e-16       2.179261733584e-11       9.436477101664e-13      -8.354851808823e-15 
   81       2.735453860883e-10       5.645594158053e-14      -1.203953543766e-12       3.678683625216e-16       2.116750160119e-11       9.231003141941e-13      -8.216013895776e-15 
   82       2.768027731535e-10       5.831110786035e-14      -1.272849284828e-12       3.770409984467e-16       2.056634245041e-11       9.032574875424e-13      -8.091943773455e-15 
   83       2.800911348235e-10       6.018446278433e-14      -1.342996175019e-12       3.863291088782e-16       1.998695691014e-11       8.841369319680e-13      -7.982712926131e-15 
   84       2.834099103604e-10       6.207469131607e-14      -1.414341686299e-12       3.957335590099e-16       1.942721574448e-11       8.657478823197e-13      -7.888099493859e-15 
   85       2.867596420468e-10       6.398044644422e-14      -1.486844450591e-12       4.052549293615e-16       1.888680800214e-11       8.480897682186e-13      -7.807024209528e-15 
   86       2.901409972642e-10       6.590033439891e-14      -1.560465009838e-12       4.148937504871e-16       1.836573556630e-11       8.311526344004e-13      -7.738011246460e-15 
   87       2.935544124008e-10       6.783290910701e-14      -1.635162528402e-12       4.246505871690e-16       1.786377071187e-11       8.149170431361e-13      -7.679347231983e-15 
   88       2.970000808382e-10       6.977667175947e-14      -1.710894804631e-12       4.345260393280e-16       1.738044652684e-11       7.993536900681e-13      -7.629073246189e-15 
   89       3.004779409372e-10       7.173007037875e-14      -1.787618282427e-12       4.445207429333e-16       1.691504733361e-11       7.844230200467e-13      -7.584976820681e-15 
   90       3.039876640250e-10       7.369149938618e-14      -1.865288062815e-12       4.546353709128e-16       1.646659911034e-11       7.700748429670e-13      -7.544583937328e-15 
   91       3.075286423811e-10       7.565929916938e-14      -1.943857915506e-12       4.648706340631e-16       1.603385991231e-11       7.562479496052e-13      -7.505151027016e-15 
   92       3.110999772240e-10       7.763175564960e-14      -2.023280290468e-12       4.752272819593e-16       1.561531029322e-11       7.428697274551e-13      -7.463656968399e-15 
   93       3.147008088561e-10       7.960714248455e-14      -2.103505920229e-12       4.857059766451e-16       1.520951958567e-11       7.298726130236e-13      -7.417475108768e-15 
   94       3.183313899911e-10       8.158385587711e-14      -2.184482533250e-12       4.963068899948e-16       1.481632856377e-11       7.172471136389e-13      -7.366522322184e-15 
   95       3.219921523941e-10       8.356029933637e-14      -2.266155967528e-12       5.070300471950e-16       1.443582777072e-11       7.049960869521e-13      -7.311419880287e-15 
   96       3.256833718885e-10       8.553484299930e-14      -2.348470568486e-12       5.178754477444e-16       1.406799314843e-11       6.931184640189e-13      -7.252843545023e-15 
   97       3.294051610392e-10       8.750582378345e-14      -2.431369194926e-12       5.288430646176e-16       1.371268161823e-11       6.816090962478e-13      -7.191524901948e-15 
   98       3.331574618353e-10       8.947154553955e-14      -2.514793224977e-12       5.399328434284e-16       1.336962666158e-11       6.704586023480e-13      -7.128252693530e-15 
   99       3.369400383741e-10       9.143027920415e-14      -2.598682562040e-12       5.511447015941e-16       1.303843390072e-11       6.596532152769e-13      -7.063874152454e-15 
  100       3.407524695437e-10       9.338026295226e-14      -2.682975640745e-12       5.624785274988e-16       1.271857667941e-11       6.491746291881e-13      -6.999296334929e-15 
  101       3.445941417064e-10       9.531970235000e-14      -2.767609432893e-12       5.739341796573e-16       1.240939164364e-11       6.389998463794e-13      -6.935487453989e-15 
  102       3.484642413822e-10       9.724677050720e-14      -2.852519453409e-12       5.855114858787e-16       1.211007432230e-11       6.291010242404e-13      -6.873478212796e-15 
  103       3.523617479316e-10       9.915960823007e-14      -2.937639766293e-12       5.972102424304e-16       1.181967470788e-11       6.194453222007e-13      -6.814363137947e-15 
  104       3.562856749625e-10       1.010563693253e-13      -3.022903998405e-12       6.090304048950e-16       1.153731578575e-11       6.100028333336e-13      -6.759053559638e-15 
  105       3.602358474506e-10       1.029353631539e-13      -3.108248523981e-12       6.209726919049e-16       1.126289226028e-11       6.007719290677e-13      -6.707495677360e-15 
  106       3.642122164445e-10       1.047949317084e-13      -3.193609723397e-12       6.330380617845e-16       1.099645841699e-11       5.917570687818e-13      -6.659348860207e-15 
  107       3.682146151885e-10       1.066334068220e-13      -3.278923030560e-12       6.452275293940e-16       1.073801165714e-11       5.829609574453e-13      -6.614223188578e-15 
