# Matter power spectrum P(k) at redshift z=3
# for k=1.03915e-05 to 1.4771 h/Mpc,
# number of wavenumbers equal to 610
#    1:k (h/Mpc)              2:P (Mpc/h)^3        
       1.039148767302e-05       5.214094412960e+00 
       2.343412337195e-05       1.144978742288e+01 
       3.652326326040e-05       1.758772325972e+01 
       4.969501503187e-05       2.369025815250e+01 
       6.298609386887e-05       2.979360197971e+01 
       7.643415805897e-05       3.592540339048e+01 
       9.007815553730e-05       4.210966198509e+01 
       1.039586860741e-04       4.836874802599e+01 
       1.181183838609e-04       5.472444786448e+01 
       1.326023252843e-04       6.119860709569e+01 
       1.474584666759e-04       6.781358642473e+01 
       1.627381167544e-04       7.459262454670e+01 
       1.784964482594e-04       8.156015433890e+01 
       1.947930528394e-04       8.874209705469e+01 
       2.116925424841e-04       9.616614835853e+01 
       2.292651995281e-04       1.038620639069e+02 
       2.475876753055e-04       1.118619481418e+02 
       2.667437346455e-04       1.202005467495e+02 
       2.868250392474e-04       1.289155401487e+02 
       3.079319571895e-04       1.380478319534e+02 
       3.301743779537e-04       1.476418222880e+02 
       3.536725019573e-04       1.577456508519e+02 
       3.785575602480e-04       1.684113885714e+02 
       4.049724035093e-04       1.796951494788e+02 
       4.330718799798e-04       1.916570862795e+02 
       4.630229000871e-04       2.043612243861e+02 
       4.950040633762e-04       2.178751026032e+02 
       5.292047039781e-04       2.322690331958e+02 
       5.658231995884e-04       2.476160978984e+02 
       6.050643928666e-04       2.639871715376e+02 
       6.471360020067e-04       2.814546119366e+02 
       6.922439576707e-04       3.000859880458e+02 
       7.405867024924e-04       3.199433240434e+02 
       7.923486261946e-04       3.410785894968e+02 
       8.476929722396e-04       3.635314509230e+02 
       9.067547154116e-04       3.873289341018e+02 
       9.696340363401e-04       4.124770844107e+02 
       1.036391067029e-03       4.389664860025e+02 
       1.107042518708e-03       4.667650477570e+02 
       1.181560621863e-03       4.958226332553e+02 
       1.259874533633e-03       5.260714135147e+02 
       1.341874055362e-03       5.574280119745e+02 
       1.427415222107e-03       5.897952927105e+02 
       1.477104874446e-03       6.084373712283e+02 
       1.516327135659e-03       6.230694518388e+02 
       1.608419344036e-03       6.571406167376e+02 
       1.703489119148e-03       6.918953767972e+02 
       1.801328118406e-03       7.272229871967e+02 
       1.901728090982e-03       7.630157435327e+02 
       2.004485464042e-03       7.991377995354e+02 
       2.109404789863e-03       8.355549755034e+02 
       2.216301138233e-03       8.721496998464e+02 
       2.325001579224e-03       9.088318276205e+02 
       2.435345926456e-03       9.455300977202e+02 
       2.547186910554e-03       9.821822811952e+02 
       2.660389936379e-03       1.018726976429e+03 
       2.774832554019e-03       1.055108954685e+03 
       2.890403747831e-03       1.091290895847e+03 
       3.007003123569e-03       1.127213725232e+03 
       3.124540052564e-03       1.162851650179e+03 
       3.242932814563e-03       1.198173402387e+03 
       3.362107767232e-03       1.233151423949e+03 
       3.481998559998e-03       1.267762588151e+03 
       3.602545402324e-03       1.301976219845e+03 
       3.723694391120e-03       1.335792273482e+03 
       3.845396898300e-03       1.369188856292e+03 
       3.967609017046e-03       1.402151784743e+03 
       4.090291063817e-03       1.434668219209e+03 
       4.213407132273e-03       1.466736077276e+03 
       4.336924694882e-03       1.498343816777e+03 
       4.460814247837e-03       1.529490174767e+03 
       4.585048995055e-03       1.560164857470e+03 
       4.709604567176e-03       1.590372201169e+03 
       4.834458771816e-03       1.620101427320e+03 
       4.959591371617e-03       1.649356046094e+03 
       5.084983886955e-03       1.678135368211e+03 
       5.210619420505e-03       1.706439199006e+03 
       5.336482501131e-03       1.734262977473e+03 
       5.462558944884e-03       1.761616301483e+03 
       5.588835731106e-03       1.788497130785e+03 
       5.715300891899e-03       1.814907085231e+03 
       5.841943413415e-03       1.840848363243e+03 
       5.968753147588e-03       1.866324893254e+03 
       6.095720733134e-03       1.891338268071e+03 
       6.222837524736e-03       1.915894507773e+03 
       6.350095529510e-03       1.939992480160e+03 
       6.477487349908e-03       1.963636721549e+03 
       6.605006132369e-03       1.986832707960e+03 
       6.732645521053e-03       2.009580985286e+03 
       6.860399616123e-03       2.031889791903e+03 
       6.988262936071e-03       2.053761676236e+03 
       7.116230383650e-03       2.075199587312e+03 
       7.244297215043e-03       2.096207749967e+03 
       7.372459011908e-03       2.116791403397e+03 
       7.500711656016e-03       2.136954239675e+03 
       7.629051306207e-03       2.156700500198e+03 
       7.757474377427e-03       2.176034618199e+03 
       7.885977521639e-03       2.194960050711e+03 
       8.014557610418e-03       2.213482896231e+03 
       8.143211719069e-03       2.231603302471e+03 
       8.271937112110e-03       2.249329852431e+03 
       8.400731229997e-03       2.266665552945e+03 
       8.529591676975e-03       2.283611471408e+03 
       8.658516209928e-03       2.300178005052e+03 
       8.787502728169e-03       2.316365685127e+03 
       8.916549264047e-03       2.332179856498e+03 
       9.045653974323e-03       2.347624364959e+03 
       9.174815132235e-03       2.362702760658e+03 
       9.304031120191e-03       2.377420061562e+03 
       9.433300423030e-03       2.391779788895e+03 
       9.562621621817e-03       2.405785768855e+03 
       9.691993388107e-03       2.419442187935e+03 
       9.821414478650e-03       2.432758753731e+03 
       9.950883730495e-03       2.445728334593e+03 
       1.008040005646e-02       2.458360004121e+03 
       1.020996244096e-02       2.470657997657e+03 
       1.033956993609e-02       2.482625776600e+03 
       1.046922165804e-02       2.494267674413e+03 
       1.059891678380e-02       2.505587668016e+03 
       1.072865454801e-02       2.516589049591e+03 
       1.085843424009e-02       2.527277185127e+03 
       1.098825520164e-02       2.537653022453e+03 
       1.111811682388e-02       2.547721351356e+03 
       1.124801854538e-02       2.557486291455e+03 
       1.137795984996e-02       2.566950018620e+03 
       1.150794026464e-02       2.576117698563e+03 
       1.163795935783e-02       2.584992400161e+03 
       1.176801673757e-02       2.593577260914e+03 
       1.189811205000e-02       2.601876118010e+03 
       1.202824497779e-02       2.609895264535e+03 
       1.215841523884e-02       2.617632063380e+03 
       1.228862258493e-02       2.625092591087e+03 
       1.241886680054e-02       2.632280404908e+03 
       1.254914770176e-02       2.639198878539e+03 
       1.267946513526e-02       2.645851172580e+03 
       1.280981897730e-02       2.652240086402e+03 
       1.294020913287e-02       2.658369615100e+03 
       1.307063553486e-02       2.664242956795e+03 
       1.320109814332e-02       2.669862608656e+03 
       1.333159694471e-02       2.675232401515e+03 
       1.346213195129e-02       2.680355165369e+03 
       1.359270320051e-02       2.685233932071e+03 
       1.372331075446e-02       2.689871658005e+03 
       1.385395469937e-02       2.694271373507e+03 
       1.398463514514e-02       2.698436076557e+03 
       1.411535222490e-02       2.702368594676e+03 
       1.424610609469e-02       2.706071799031e+03 
       1.437689693303e-02       2.709549065755e+03 
       1.450772494069e-02       2.712803140362e+03 
       1.463859034035e-02       2.715836118773e+03 
       1.476949337637e-02       2.718656901073e+03 
       1.477104874446e-02       2.718688990164e+03 
       1.490043431459e-02       2.721256565154e+03 
       1.503141344215e-02       2.723644310635e+03 
       1.516243106727e-02       2.725822790821e+03 
       1.529348751920e-02       2.727795046165e+03 
       1.542458314804e-02       2.729563166054e+03 
       1.555571832469e-02       2.731131945845e+03 
       1.568689344079e-02       2.732500283260e+03 
       1.581810890869e-02       2.733672612967e+03 
       1.594936516139e-02       2.734651490187e+03 
       1.608066265261e-02       2.735439318635e+03 
       1.621200185675e-02       2.736038790643e+03 
       1.634338326901e-02       2.736452117236e+03 
       1.647480740539e-02       2.736682209790e+03 
       1.660627480280e-02       2.736731375410e+03 
       1.673778601919e-02       2.736602205531e+03 
       1.686934163362e-02       2.736297156988e+03 
       1.700094224647e-02       2.735818751779e+03 
       1.713258847951e-02       2.735169356644e+03 
       1.726428097617e-02       2.734351757615e+03 
       1.739602040167e-02       2.733368511218e+03 
       1.752780744324e-02       2.732221801498e+03 
       1.765964281038e-02       2.730914530225e+03 
       1.779152723507e-02       2.729448713254e+03 
       1.792346147203e-02       2.727826934769e+03 
       1.805544629904e-02       2.726054928985e+03 
       1.818748251718e-02       2.724129196584e+03 
       1.831957095118e-02       2.722053050617e+03 
       1.845171244974e-02       2.719829798552e+03 
       1.858390788585e-02       2.717461884984e+03 
       1.871615815720e-02       2.714951237644e+03 
       1.884846418650e-02       2.712299812809e+03 
       1.898082692193e-02       2.709509820377e+03 
       1.911324733752e-02       2.706582855201e+03 
       1.924572643359e-02       2.703521334594e+03 
       1.937826523718e-02       2.700330630985e+03 
       1.951086480256e-02       2.697005701541e+03 
       1.964352621167e-02       2.693552151202e+03 
       1.977625057464e-02       2.689971976120e+03 
       1.990903903030e-02       2.686267627195e+03 
       2.004189274674e-02       2.682441148747e+03 
       2.017481292186e-02       2.678494761640e+03 
       2.030780078391e-02       2.674434917657e+03 
       2.044085759216e-02       2.670255830569e+03 
       2.057398463746e-02       2.665963519937e+03 
       2.070718324291e-02       2.661561739854e+03 
       2.084045476450e-02       2.657050550900e+03 
       2.097380059181e-02       2.652432384441e+03 
       2.110722214871e-02       2.647710091598e+03 
       2.124072089408e-02       2.642885177055e+03 
       2.137429832256e-02       2.637962256742e+03 
       2.150795596535e-02       2.632937397798e+03 
       2.164169539098e-02       2.627818686025e+03 
       2.177551820613e-02       2.622602564511e+03 
       2.190942605654e-02       2.617307286514e+03 
       2.204342062781e-02       2.611899047793e+03 
       2.217750364635e-02       2.606398728306e+03 
       2.231167688032e-02       2.600809373592e+03 
       2.244594214056e-02       2.595132747938e+03 
       2.258030128161e-02       2.589370601367e+03 
       2.271475620273e-02       2.583524664958e+03 
       2.284930884894e-02       2.577596542095e+03 
       2.298396121214e-02       2.571591409164e+03 
       2.311871533220e-02       2.565504466788e+03 
       2.325357329815e-02       2.559340545363e+03 
       2.338853724933e-02       2.553102057801e+03 
       2.352360937667e-02       2.546788878191e+03 
       2.365879192394e-02       2.540404006113e+03 
       2.379408718907e-02       2.533948232069e+03 
       2.392949752546e-02       2.527423548712e+03 
       2.406502534344e-02       2.520830723487e+03 
       2.420067311167e-02       2.514172925124e+03 
       2.433644335862e-02       2.507453286065e+03 
       2.447233867415e-02       2.500668454059e+03 
       2.460836171101e-02       2.493822513084e+03 
       2.474451518655e-02       2.486916856155e+03 
       2.488080188438e-02       2.479952958915e+03 
       2.501722465608e-02       2.472932278773e+03 
       2.515378642306e-02       2.465856257560e+03 
       2.529049017835e-02       2.458726326395e+03 
       2.542733898856e-02       2.451546496640e+03 
       2.556433599585e-02       2.444309512652e+03 
       2.570148441996e-02       2.437026952491e+03 
       2.583878756038e-02       2.429695579466e+03 
       2.597624879846e-02       2.422316927796e+03 
       2.611387159972e-02       2.414892576766e+03 
       2.625165951619e-02       2.407424250343e+03 
       2.638961618879e-02       2.399912497102e+03 
       2.652774534988e-02       2.392358924393e+03 
       2.666605082583e-02       2.384766205302e+03 
       2.680453653966e-02       2.377132787672e+03 
       2.694320651386e-02       2.369461312445e+03 
       2.708206487327e-02       2.361752994637e+03 
       2.722111584799e-02       2.354009033055e+03 
       2.736036377651e-02       2.346230609902e+03 
       2.749981310890e-02       2.338420546018e+03 
       2.763946841007e-02       2.330576738435e+03 
       2.777933436326e-02       2.322701917297e+03 
       2.791941577353e-02       2.314797199202e+03 
       2.805971757150e-02       2.306863684330e+03 
       2.820024481710e-02       2.298902456379e+03 
       2.834100270362e-02       2.290914582712e+03 
       2.848199656176e-02       2.282901041810e+03 
       2.862323186392e-02       2.274864978097e+03 
       2.876471422866e-02       2.266803472305e+03 
       2.890644942525e-02       2.258719443449e+03 
       2.904844337853e-02       2.250614223580e+03 
       2.919070217381e-02       2.242488057643e+03 
       2.933323206210e-02       2.234342004762e+03 
       2.947603946546e-02       2.226178222264e+03 
       2.961913098261e-02       2.217995117983e+03 
       2.976251339473e-02       2.209796939698e+03 
       2.990619367155e-02       2.201581487467e+03 
       3.005017897761e-02       2.193350973200e+03 
       3.019447667890e-02       2.185106187536e+03 
       3.033909434965e-02       2.176847917483e+03 
       3.048403977951e-02       2.168578760157e+03 
       3.062932098093e-02       2.160295649063e+03 
       3.077494619700e-02       2.152003309611e+03 
       3.092092390948e-02       2.143699368333e+03 
       3.106726284730e-02       2.135386165633e+03 
       3.121397199536e-02       2.127063819435e+03 
       3.136106060373e-02       2.118734533171e+03 
       3.150853819732e-02       2.110396418785e+03 
       3.165641458593e-02       2.102053333756e+03 
       3.180469987479e-02       2.093703099628e+03 
       3.195340447555e-02       2.085347528976e+03 
       3.210253911781e-02       2.076987257235e+03 
       3.225211486124e-02       2.068624342265e+03 
       3.240214310816e-02       2.060256895835e+03 
       3.255263561682e-02       2.051886224737e+03 
       3.270360451529e-02       2.043513227349e+03 
       3.285506231602e-02       2.035138454839e+03 
       3.300702193115e-02       2.026762440730e+03 
       3.315949668852e-02       2.018385702620e+03 
       3.331250034858e-02       2.010010135199e+03 
       3.346604712205e-02       2.001633779259e+03 
       3.362015168858e-02       1.993257922005e+03 
       3.377482921634e-02       1.984882983724e+03 
       3.393009538263e-02       1.976510073228e+03 
       3.408596639558e-02       1.968139580226e+03 
       3.424245901703e-02       1.959770775908e+03 
       3.439959058665e-02       1.951404332305e+03 
       3.455737904736e-02       1.943042440463e+03 
       3.471584297216e-02       1.934683057921e+03 
       3.487500159247e-02       1.926327483354e+03 
       3.503487482805e-02       1.917976020812e+03 
       3.519548331865e-02       1.909630072792e+03 
       3.535684845751e-02       1.901287998389e+03 
       3.551899242674e-02       1.892950270154e+03 
       3.568193823490e-02       1.884618472008e+03 
       3.584570975672e-02       1.876291811800e+03 
       3.601033177530e-02       1.867970229401e+03 
       3.617583002688e-02       1.859654706145e+03 
       3.634223124833e-02       1.851345161539e+03 
       3.650956322773e-02       1.843041264950e+03 
       3.667785485803e-02       1.834743463370e+03 
       3.684713619428e-02       1.826452926715e+03 
       3.701743851451e-02       1.818168009262e+03 
       3.718879438465e-02       1.809889017611e+03 
       3.736123772778e-02       1.801616740979e+03 
       3.753480389810e-02       1.793350469607e+03 
       3.770952975993e-02       1.785090522659e+03 
       3.788545377221e-02       1.776836821981e+03 
       3.806261607895e-02       1.768589318960e+03 
       3.824105860620e-02       1.760347982939e+03 
       3.842082516591e-02       1.752112653652e+03 
       3.860196156756e-02       1.743883101652e+03 
       3.878451573800e-02       1.735660019276e+03 
       3.896853785037e-02       1.727441370454e+03 
       3.915408046295e-02       1.719227950987e+03 
       3.934119866873e-02       1.711020366582e+03 
       3.952995025685e-02       1.702816995694e+03 
       3.972039588695e-02       1.694617513681e+03 
       3.991259927774e-02       1.686422873448e+03 
       4.010662741115e-02       1.678231100780e+03 
       4.030255075357e-02       1.670042518456e+03 
       4.050044349613e-02       1.661857155317e+03 
       4.070038381562e-02       1.653674308923e+03 
       4.090245415859e-02       1.645492743516e+03 
       4.110674155085e-02       1.637312061594e+03 
       4.131333793522e-02       1.629132507163e+03 
       4.152234054066e-02       1.620952410286e+03 
       4.173385228620e-02       1.612771192010e+03 
       4.194798222379e-02       1.604588955737e+03 
       4.216484602448e-02       1.596403625699e+03 
       4.238456651308e-02       1.588214951486e+03 
       4.260727425716e-02       1.580022421604e+03 
       4.283310821712e-02       1.571824844553e+03 
       4.306221646476e-02       1.563620536392e+03 
       4.329475697944e-02       1.555408608864e+03 
       4.353089853156e-02       1.547187775157e+03 
       4.377082166516e-02       1.538957516249e+03 
       4.401471979311e-02       1.530715461852e+03 
       4.426280042021e-02       1.522460431145e+03 
       4.451528651256e-02       1.514190733056e+03 
       4.477241803408e-02       1.505904475587e+03 
       4.503445367493e-02       1.497600602646e+03 
       4.530167280070e-02       1.489275830279e+03 
       4.557437765638e-02       1.480929647510e+03 
       4.585289586539e-02       1.472558419352e+03 
       4.613758327111e-02       1.464159916302e+03 
       4.642882717760e-02       1.455731747833e+03 
       4.672705005709e-02       1.447270457667e+03 
       4.703271380498e-02       1.438773733108e+03 
       4.734632463987e-02       1.430232206029e+03 
       4.766843876594e-02       1.421652635546e+03 
       4.799966894019e-02       1.413025998301e+03 
       4.834069211795e-02       1.404346732596e+03 
       4.869225838868e-02       1.395611081688e+03 
       4.905520146257e-02       1.386809123269e+03 
       4.943045102890e-02       1.377940901330e+03 
       4.981904738433e-02       1.368997982291e+03 
       5.022215882572e-02       1.359971314450e+03 
       5.064110242606e-02       1.350852203991e+03 
       5.107736896853e-02       1.341631404985e+03 
       5.153265301411e-02       1.332294398425e+03 
       5.200888933301e-02       1.322831676628e+03 
       5.250829725453e-02       1.313224719964e+03 
       5.303343489955e-02       1.303457311734e+03 
       5.358726577196e-02       1.293506804385e+03 
       5.417324081239e-02       1.283346718447e+03 
       5.479539975811e-02       1.272945566504e+03 
       5.545849646980e-02       1.262263388300e+03 
       5.616815366175e-02       1.251253059396e+03 
       5.693105292223e-02       1.239851766042e+03 
       5.775516541458e-02       1.227978506922e+03 
       5.865002594266e-02       1.215534432767e+03 
       5.962704569307e-02       1.202382384738e+03 
       6.069984245018e-02       1.188341578824e+03 
