# Matter power spectrum P(k) at redshift z=3
# for k=1.07209e-05 to 1.4771 h/Mpc,
# number of wavenumbers equal to 611
#    1:k (h/Mpc)              2:P (Mpc/h)^3        
       1.072086077628e-05       4.465920957304e+00 
       2.407119303778e-05       9.765374082719e+00 
       3.747163567609e-05       1.498312298251e+01 
       5.096092499847e-05       2.017256180472e+01 
       6.457848213963e-05       2.536506818010e+01 
       7.836479054482e-05       3.058481407703e+01 
       9.236178633398e-05       3.585292744859e+01 
       1.066132670930e-04       4.118921468985e+01 
       1.211653246775e-04       4.661306070642e+01 
       1.360668076501e-04       5.214398983251e+01 
       1.513698189575e-04       5.780206957349e+01 
       1.671302543377e-04       6.360823716415e+01 
       1.834083866396e-04       6.958458829236e+01 
       2.002695006311e-04       7.575464897584e+01 
       2.177845818126e-04       8.214364227471e+01 
       2.360310610395e-04       8.877875614800e+01 
       2.550936141165e-04       9.568941507966e+01 
       2.750650116283e-04       1.029075550051e+02 
       2.960470086803e-04       1.104678979344e+02 
       3.181512564428e-04       1.184082190778e+02 
       3.415002068705e-04       1.267695949154e+02 
       3.662279681320e-04       1.355966152899e+02 
       3.924810507138e-04       1.449375360847e+02 
       4.204189227116e-04       1.548443414081e+02 
       4.502142679986e-04       1.653726757267e+02 
       4.820528143049e-04       1.765815977854e+02 
       5.161325729183e-04       1.885331007557e+02 
       5.526623130176e-04       2.012913389768e+02 
       5.918590894276e-04       2.149215038888e+02 
       6.339446629662e-04       2.294871462089e+02 
       6.791407086967e-04       2.450527306921e+02 
       7.276628085384e-04       2.616747610349e+02 
       7.797133735227e-04       2.794033952956e+02 
       8.354738279861e-04       2.982786145110e+02 
       8.950965869838e-04       3.183274912568e+02 
       9.586975262963e-04       3.395602021765e+02 
       1.026349729727e-03       3.619744062593e+02 
       1.098079256074e-03       3.855454509718e+02 
       1.173863479988e-03       4.102347834932e+02 
       1.253632249724e-03       4.359667728835e+02 
       1.337271733807e-03       4.626968044055e+02 
       1.424630482831e-03       4.903287894699e+02 
       1.477104874446e-03       5.067873512893e+02 
       1.515526989588e-03       5.187731218161e+02 
       1.609757933829e-03       5.479318915190e+02 
       1.707106346376e-03       5.777068882922e+02 
       1.807349083104e-03       6.079976695626e+02 
       1.910263207615e-03       6.387103289485e+02 
       2.015631090313e-03       6.697532570160e+02 
       2.123244205146e-03       7.010252480198e+02 
       2.232905727237e-03       7.324850879685e+02 
       2.344432104515e-03       7.640381975091e+02 
       2.457653803547e-03       7.956316885182e+02 
       2.572415426799e-03       8.272032864585e+02 
       2.688575377732e-03       8.586932974001e+02 
       2.806005221107e-03       8.900613891237e+02 
       2.924588855219e-03       9.212713243159e+02 
       3.044221584318e-03       9.522879846467e+02 
       3.164809155230e-03       9.830756097344e+02 
       3.286266802434e-03       1.013611708920e+03 
       3.408518330728e-03       1.043872809328e+03 
       3.531495253181e-03       1.073842996185e+03 
       3.655135993907e-03       1.103484624250e+03 
       3.779385159479e-03       1.132807825013e+03 
       3.904192878937e-03       1.161793385781e+03 
       4.029514209886e-03       1.190427153163e+03 
       4.155308606718e-03       1.218704524949e+03 
       4.281539446186e-03       1.246616052321e+03 
       4.408173605264e-03       1.274153805103e+03 
       4.535181086223e-03       1.301323890056e+03 
       4.662534684024e-03       1.328107175821e+03 
       4.790209691467e-03       1.354502203607e+03 
       4.918183637863e-03       1.380519563787e+03 
       5.046436057402e-03       1.406151688423e+03 
       5.174948283779e-03       1.431396233483e+03 
       5.303703267983e-03       1.456256850686e+03 
       5.432685416533e-03       1.480727925628e+03 
       5.561880447717e-03       1.504815406176e+03 
       5.691275263723e-03       1.528519375717e+03 
       5.820857836768e-03       1.551838689468e+03 
       5.950617107575e-03       1.574777147548e+03 
       6.080542894756e-03       1.597320961933e+03 
       6.210625813821e-03       1.619500875421e+03 
       6.340857204694e-03       1.641321225577e+03 
       6.471229066769e-03       1.662753238190e+03 
       6.601734000634e-03       1.683814743304e+03 
       6.732365155712e-03       1.704507365749e+03 
       6.863116183157e-03       1.724834060063e+03 
       6.993981193424e-03       1.744798456730e+03 
       7.124954717990e-03       1.764403486089e+03 
       7.256031674787e-03       1.783653523087e+03 
       7.387207336933e-03       1.802547750375e+03 
       7.518477304430e-03       1.821092980201e+03 
       7.649837478489e-03       1.839288311942e+03 
       7.781284038238e-03       1.857140602326e+03 
       7.912813419541e-03       1.874651953661e+03 
       8.044422295731e-03       1.891823309414e+03 
       8.176107560060e-03       1.908660270997e+03 
       8.307866309687e-03       1.925165305464e+03 
       8.439695831060e-03       1.941342573921e+03 
       8.571593586561e-03       1.957194121601e+03 
       8.703557202277e-03       1.972724643609e+03 
       8.835584456806e-03       1.987936229561e+03 
       8.967673270992e-03       2.002831864906e+03 
       9.099821698500e-03       2.017415706388e+03 
       9.232027917167e-03       2.031690522549e+03 
       9.364290221039e-03       2.045635037581e+03 
       9.496607013054e-03       2.059302202511e+03 
       9.628976798291e-03       2.072667487217e+03 
       9.761398177759e-03       2.085739630929e+03 
       9.893869842656e-03       2.098516498889e+03 
       1.002639056907e-02       2.111007025659e+03 
       1.015895921311e-02       2.123207567027e+03 
       1.029157470635e-02       2.135128662946e+03 
       1.042423605164e-02       2.146766128726e+03 
       1.055694231929e-02       2.158154882191e+03 
       1.068969264341e-02       2.169241196922e+03 
       1.082248621862e-02       2.180055754743e+03 
       1.095532229696e-02       2.190572168194e+03 
       1.108820018504e-02       2.200853118824e+03 
       1.122111924136e-02       2.210868451459e+03 
       1.135407887385e-02       2.220628077022e+03 
       1.148707853761e-02       2.230126391325e+03 
       1.162011773275e-02       2.239377263429e+03 
       1.175319600241e-02       2.248374279459e+03 
       1.188631293095e-02       2.257123358609e+03 
       1.201946814223e-02       2.265663746291e+03 
       1.215266129801e-02       2.273922660454e+03 
       1.228589209649e-02       2.281939172933e+03 
       1.241916027095e-02       2.289721294630e+03 
       1.255246558843e-02       2.297266356926e+03 
       1.268580784860e-02       2.304578975819e+03 
       1.281918688265e-02       2.311662242671e+03 
       1.295260255223e-02       2.318518129342e+03 
       1.308605474856e-02       2.325149361521e+03 
       1.321954339151e-02       2.331557771174e+03 
       1.335306842881e-02       2.337746234274e+03 
       1.348662983532e-02       2.343718064995e+03 
       1.362022761228e-02       2.349476027831e+03 
       1.375386178673e-02       2.355020623406e+03 
       1.388753241088e-02       2.360355669934e+03 
       1.402123956160e-02       2.365480221481e+03 
       1.415498333990e-02       2.370403014186e+03 
       1.428876387051e-02       2.375123332853e+03 
       1.442258130143e-02       2.379643397949e+03 
       1.455643580358e-02       2.383965613617e+03 
       1.469032757046e-02       2.388092249839e+03 
       1.477104874446e-02       2.390486215372e+03 
       1.482425681785e-02       2.392025909163e+03 
       1.495822378353e-02       2.395762952695e+03 
       1.509222872706e-02       2.399315617436e+03 
       1.522627192956e-02       2.402681688852e+03 
       1.536035369353e-02       2.405863642875e+03 
       1.549447434271e-02       2.408867541668e+03 
       1.562863422194e-02       2.411687055906e+03 
       1.576283369709e-02       2.414329214838e+03 
       1.589707315493e-02       2.416796111449e+03 
       1.603135300315e-02       2.419089862229e+03 
       1.616567367026e-02       2.421212638360e+03 
       1.630003560565e-02       2.423166378827e+03 
       1.643443927955e-02       2.424954801621e+03 
       1.656888518310e-02       2.426578886587e+03 
       1.670337382839e-02       2.428035671746e+03 
       1.683790574853e-02       2.429339096226e+03 
       1.697248149777e-02       2.430479096162e+03 
       1.710710165160e-02       2.431463001983e+03 
       1.724176680687e-02       2.432293103962e+03 
       1.737647758194e-02       2.432971068689e+03 
       1.751123461688e-02       2.433498433383e+03 
       1.764603857362e-02       2.433877317490e+03 
       1.778089013617e-02       2.434109566346e+03 
       1.791579001084e-02       2.434196906377e+03 
       1.805073892647e-02       2.434161968550e+03 
       1.818573763470e-02       2.433965363665e+03 
       1.832078691021e-02       2.433629586378e+03 
       1.845588755104e-02       2.433156536204e+03 
       1.859104037888e-02       2.432548189341e+03 
       1.872624623940e-02       2.431806357222e+03 
       1.886150600257e-02       2.430927714602e+03 
       1.899682056305e-02       2.429923764056e+03 
       1.913219084051e-02       2.428791300591e+03 
       1.926761778009e-02       2.427533227101e+03 
       1.940310235272e-02       2.426152173301e+03 
       1.953864555563e-02       2.424648070539e+03 
       1.967424841273e-02       2.423024716294e+03 
       1.980991197510e-02       2.421280405874e+03 
       1.994563732147e-02       2.419421142409e+03 
       2.008142555868e-02       2.417445516365e+03 
       2.021727782225e-02       2.415361659393e+03 
       2.035319527685e-02       2.413161148341e+03 
       2.048917911690e-02       2.410880362011e+03 
       2.062523056714e-02       2.408579631959e+03 
       2.076135088319e-02       2.406051768232e+03 
       2.089754135217e-02       2.403418646652e+03 
       2.103380329337e-02       2.400681919978e+03 
       2.117013805885e-02       2.397843318632e+03 
       2.130654703416e-02       2.394899008526e+03 
       2.144303163901e-02       2.391861987855e+03 
       2.157959332799e-02       2.388726142086e+03 
       2.171623359134e-02       2.385495766193e+03 
       2.185295395567e-02       2.382175255572e+03 
       2.198975598482e-02       2.378753431454e+03 
       2.212664128060e-02       2.375245555416e+03 
       2.226361148369e-02       2.371647131266e+03 
       2.240066827448e-02       2.367962046017e+03 
       2.253781337398e-02       2.364189850721e+03 
       2.267504854472e-02       2.360330966211e+03 
       2.281237559174e-02       2.356423386815e+03 
       2.294979636356e-02       2.352399696009e+03 
       2.308731275315e-02       2.348297367478e+03 
       2.322492669905e-02       2.344115711777e+03 
       2.336264018638e-02       2.339857682873e+03 
       2.350045524800e-02       2.335521686004e+03 
       2.363837396562e-02       2.331106685140e+03 
       2.377639847100e-02       2.326622471693e+03 
       2.391453094715e-02       2.322067378569e+03 
       2.405277362962e-02       2.317440399891e+03 
       2.419112880775e-02       2.312744158942e+03 
       2.432959882604e-02       2.307980012458e+03 
       2.446818608552e-02       2.303149327371e+03 
       2.460689304516e-02       2.298253435372e+03 
       2.474572222336e-02       2.293293650178e+03 
       2.488467619942e-02       2.288271271571e+03 
       2.502375761516e-02       2.283187584240e+03 
       2.516296917648e-02       2.278043692228e+03 
       2.530231365505e-02       2.272840806876e+03 
       2.544179389003e-02       2.267580321877e+03 
       2.558141278982e-02       2.262263836921e+03 
       2.572117333390e-02       2.256891256613e+03 
       2.586107857475e-02       2.251465598233e+03 
       2.600113163976e-02       2.245986406303e+03 
       2.614133573326e-02       2.240457145457e+03 
       2.628169413863e-02       2.234875441399e+03 
       2.642221022041e-02       2.229245718931e+03 
       2.656288742656e-02       2.223566693504e+03 
       2.670372929076e-02       2.217841834483e+03 
       2.684473943477e-02       2.212071033962e+03 
       2.698592157090e-02       2.206249653324e+03 
       2.712727950458e-02       2.200224533185e+03 
       2.726881713695e-02       2.194357025744e+03 
       2.741053846761e-02       2.188414496391e+03 
       2.755244759747e-02       2.182430930053e+03 
       2.769454873161e-02       2.176409555516e+03 
       2.783684618235e-02       2.170348077842e+03 
       2.797934437237e-02       2.164249187537e+03 
       2.812204783794e-02       2.158114068652e+03 
       2.826496123232e-02       2.151943326128e+03 
       2.840808932921e-02       2.145738312329e+03 
       2.855143702638e-02       2.139499569035e+03 
       2.869500934941e-02       2.133228249143e+03 
       2.883881145559e-02       2.126925285890e+03 
       2.898284863793e-02       2.120591604531e+03 
       2.912712632938e-02       2.114228148001e+03 
       2.927165010713e-02       2.107831488985e+03 
       2.941642569716e-02       2.101410679826e+03 
       2.956145897891e-02       2.094962681000e+03 
       2.970675599013e-02       2.088488341040e+03 
       2.985232293198e-02       2.081988322110e+03 
       2.999816617425e-02       2.075463792205e+03 
       3.014429226085e-02       2.068915396956e+03 
       3.029070791550e-02       2.062343712592e+03 
       3.043742004763e-02       2.055748497552e+03 
       3.058443575854e-02       2.049133323839e+03 
       3.073176234786e-02       2.042497406978e+03 
       3.087940732018e-02       2.035840481005e+03 
       3.102737839200e-02       2.029165350378e+03 
       3.117568349905e-02       2.022468038934e+03 
       3.132433080380e-02       2.015756821287e+03 
       3.147332870334e-02       2.009027514708e+03 
       3.162268583764e-02       2.002282018635e+03 
       3.177241109813e-02       1.995520708137e+03 
       3.192251363667e-02       1.988745242367e+03 
       3.207300287487e-02       1.981953897061e+03 
       3.222388851394e-02       1.975148639855e+03 
       3.237518054489e-02       1.968330044987e+03 
       3.252688925922e-02       1.961498722464e+03 
       3.267902526009e-02       1.954655247659e+03 
       3.283159947409e-02       1.947800183503e+03 
       3.298462316342e-02       1.940934112256e+03 
       3.313810793878e-02       1.934057573261e+03 
       3.329206577282e-02       1.927170927922e+03 
       3.344650901423e-02       1.920274581913e+03 
       3.360145040252e-02       1.913369118014e+03 
       3.375690308357e-02       1.906452474547e+03 
       3.391288062591e-02       1.899529334633e+03 
       3.406939703781e-02       1.892600369547e+03 
       3.422646678529e-02       1.885664220630e+03 
       3.438410481102e-02       1.878720887743e+03 
       3.454232655415e-02       1.871770973235e+03 
       3.470114797131e-02       1.864815499829e+03 
       3.486058555856e-02       1.857853711050e+03 
       3.502065637465e-02       1.850887135793e+03 
       3.518137806543e-02       1.843916250796e+03 
       3.534276888967e-02       1.836940439260e+03 
       3.550484774627e-02       1.829960637707e+03 
       3.566763420300e-02       1.822976487205e+03 
       3.583114852682e-02       1.815999010046e+03 
       3.599541171599e-02       1.809007347418e+03 
       3.616044553400e-02       1.802012551053e+03 
       3.632627254547e-02       1.795014967691e+03 
       3.649291615422e-02       1.788014300711e+03 
       3.666040064352e-02       1.781010974151e+03 
       3.682875121887e-02       1.774005139793e+03 
       3.699799405331e-02       1.766996710778e+03 
       3.716815633564e-02       1.759986779332e+03 
       3.733926632150e-02       1.752968805135e+03 
       3.751135338786e-02       1.745953815214e+03 
       3.768444809090e-02       1.738936904777e+03 
       3.785858222766e-02       1.731917865429e+03 
       3.803378890178e-02       1.724897060960e+03 
       3.821010259361e-02       1.717873573089e+03 
       3.838755923507e-02       1.710848805232e+03 
       3.856619628958e-02       1.703821753550e+03 
       3.874605283755e-02       1.696792978387e+03 
       3.892716966799e-02       1.689761450098e+03 
       3.910958937642e-02       1.682727998649e+03 
       3.929335647009e-02       1.675692043308e+03 
       3.947851748074e-02       1.668678004314e+03 
       3.966512108580e-02       1.661636520750e+03 
       3.985321823876e-02       1.654591761375e+03 
       4.004286230940e-02       1.647520664629e+03 
       4.023410923501e-02       1.640492236539e+03 
       4.042701768350e-02       1.633436966295e+03 
       4.062164922944e-02       1.626381016457e+03 
       4.081806854459e-02       1.619316868266e+03 
       4.101634360393e-02       1.612245968684e+03 
       4.121654590914e-02       1.605171482205e+03 
       4.141875073096e-02       1.598091395634e+03 
       4.162303737257e-02       1.591004712429e+03 
       4.182948945619e-02       1.583911064884e+03 
       4.203819523519e-02       1.576810105418e+03 
       4.224924793472e-02       1.569702298510e+03 
       4.246274612376e-02       1.562584261130e+03 
       4.267879412227e-02       1.555456895963e+03 
       4.289750244738e-02       1.548318873996e+03 
       4.311898830307e-02       1.541169873683e+03 
       4.334337611860e-02       1.534008950978e+03 
       4.357079814150e-02       1.526839397019e+03 
       4.380139509166e-02       1.519651063525e+03 
       4.403531688444e-02       1.512447461205e+03 
       4.427272343125e-02       1.505223987243e+03 
       4.451378552789e-02       1.497986117824e+03 
       4.475868584209e-02       1.490735131499e+03 
       4.500762001380e-02       1.483457291701e+03 
       4.526079788360e-02       1.476157287136e+03 
       4.551844486739e-02       1.468833263762e+03 
       4.578080349828e-02       1.461483420828e+03 
       4.604813516035e-02       1.454105775901e+03 
       4.632072204297e-02       1.446698366099e+03 
       4.659886934955e-02       1.439258479448e+03 
       4.688290780084e-02       1.431784144903e+03 
       4.717319647984e-02       1.424272532227e+03 
       4.747012607483e-02       1.416720681143e+03 
       4.777412258730e-02       1.409125589704e+03 
       4.808565158540e-02       1.401481985660e+03 
       4.840522309901e-02       1.393789340040e+03 
       4.873339727320e-02       1.386042213983e+03 
       4.907079092095e-02       1.378244150092e+03 
       4.941808514670e-02       1.370373806885e+03 
       4.977603425061e-02       1.362434115931e+03 
       5.014547617059e-02       1.354414677106e+03 
       5.052734477939e-02       1.346317386696e+03 
       5.092268442925e-02       1.338130637141e+03 
       5.133266723200e-02       1.329845910233e+03 
       5.175861368398e-02       1.321453689388e+03 
       5.220201739885e-02       1.312943429248e+03 
       5.266457490829e-02       1.304302464607e+03 
       5.314822174103e-02       1.295517521275e+03 
       5.365517630886e-02       1.286577901404e+03 
       5.418799353230e-02       1.277452419086e+03 
       5.474963064299e-02       1.268125087890e+03 
       5.534352822177e-02       1.258569386611e+03 
       5.597371027049e-02       1.248753070054e+03 
       5.664490794419e-02       1.238663167417e+03 
       5.736271238561e-02       1.228204443576e+03 
       5.813376265374e-02       1.217335855719e+03 
       5.896597446361e-02       1.205982377645e+03 
       5.986881320263e-02       1.194045902287e+03 
       6.085360821046e-02       1.181408557074e+03 
       6.193389044229e-02       1.167902955642e+03 
       6.312570526285e-02       1.153318481444e+03 
