# dimensionless total lensed [l(l+1)/2pi] C_l's
# for l=2 to 2600, i.e. number of multipoles equal to 2599
#
# -> if you prefer output in CAMB/HealPix/LensPix units/order, set 'format' to 'camb' in input file
# -> if you don't want to see such a header, set 'headers' to 'no' in input file
# -> for CMB lensing (phi), these are C_l^phi-phi for the lensing potential.
#    Remember the conversion factors:
#    C_l^dd (deflection) = l(l+1) C_l^phi-phi
#    C_l^gg (shear/convergence) = 1/4 (l(l+1))^2 C_l^phi-phi
#
# 1:l     2:TT                     3:EE                     4:TE                     5:BB                     6:phiphi                 7:TPhi                   8:Ephi               
    2       1.456704214633e-10       7.098543427884e-15       4.674004760494e-13       2.395251785988e-19       8.675684057214e-09       4.774769616994e-10      -2.442498183277e-12 
    3       1.374771509649e-10       1.204104149226e-14       5.892370260683e-13       4.792216676556e-19       5.329579519327e-09       3.406894227161e-10      -2.152316586804e-12 
    4       1.293525856828e-10       1.407609877154e-14       6.103887182760e-13       7.990789725074e-19       3.708952876075e-09       2.595405961609e-10      -1.718961539498e-12 
    5       1.229132010041e-10       1.302949596335e-14       5.722491422129e-13       1.199313127173e-18       2.771056556364e-09       2.060703709294e-10      -1.276999532063e-12 
    6       1.181783886489e-10       1.006131470044e-14       5.040161565268e-13       1.680183835519e-18       2.166283260925e-09       1.683544842091e-10      -8.731920886710e-13 
    7       1.148655829737e-10       6.673047055928e-15       4.255847896859e-13       2.241988061838e-18       1.748858322247e-09       1.404989120451e-10      -5.314247445914e-13 
    8       1.126670996997e-10       3.946579841188e-15       3.489509114861e-13       2.885052801405e-18       1.446020582660e-09       1.192082512938e-10      -2.624920858516e-13 
    9       1.113463797884e-10       2.284653305752e-15       2.812537518806e-13       3.609727256921e-18       1.217814810490e-09       1.024891207931e-10      -6.818947796630e-14 
   10       1.106954206010e-10       1.540507989123e-15       2.264925015945e-13       4.416374663948e-18       1.040850427104e-09       8.910508110418e-11       5.654419245378e-14 
   11       1.105796294023e-10       1.322123029745e-15       1.863383104584e-13       5.305364017617e-18       8.778661013607e-10       7.850949522826e-11       1.209821539074e-13 
   12       1.108934374252e-10       1.267630189318e-15       1.605667389959e-13       6.277061953614e-18       7.672781632511e-10       6.942188135792e-11       1.394178680818e-13 
   13       1.115200912668e-10       1.183428646903e-15       1.474630547231e-13       7.331825028840e-18       6.764729621800e-10       6.199479070676e-11       1.252909229445e-13 
   14       1.123637723901e-10       1.042127779583e-15       1.444782536805e-13       8.469992631404e-18       6.009012231229e-10       5.555477279061e-11       9.106061908279e-14 
   15       1.134305098507e-10       9.024690421582e-16       1.487388638030e-13       9.691880726361e-18       5.372747550037e-10       5.017199618151e-11       4.871098787197e-14 
   16       1.146829884490e-10       8.246153883539e-16       1.572867123423e-13       1.099777661361e-17       4.831652115542e-10       4.560739755470e-11       7.162122337651e-15 
   17       1.160403175019e-10       8.257289343379e-16       1.676135723592e-13       1.238793483875e-17       4.367380545692e-10       4.166418113575e-11      -2.735498055113e-14 
   18       1.175057742500e-10       8.789783973665e-16       1.779625752412e-13       1.386257384074e-17       3.964330393875e-10       3.816002510518e-11      -5.134684640122e-14 
   19       1.190874290093e-10       9.522653875340e-16       1.873766207075e-13       1.542187701162e-17       3.616131249239e-10       3.506664048830e-11      -6.392980657879e-14 
   20       1.207314212478e-10       1.012670870102e-15       1.950893421374e-13       1.706598676414e-17       3.309393030703e-10       3.233258237586e-11      -6.589502540878e-14 
   21       1.224495532999e-10       1.063175818815e-15       2.011690292382e-13       1.879501360964e-17       3.039316548908e-10       2.991451286142e-11      -5.933516469569e-14 
   22       1.242414045176e-10       1.121707810644e-15       2.060647270662e-13       2.060902952596e-17       2.799456993869e-10       2.773212375335e-11      -4.753919080218e-14 
   23       1.260961459948e-10       1.207247408025e-15       2.102434483354e-13       2.250808111720e-17       2.586529118106e-10       2.575461569867e-11      -3.341300064977e-14 
   24       1.279821635999e-10       1.337935284977e-15       2.142443769575e-13       2.449218289943e-17       2.395623454513e-10       2.394858603440e-11      -2.001653269703e-14 
   25       1.299164114285e-10       1.514205070997e-15       2.185248810099e-13       2.656133547646e-17       2.224504177142e-10       2.232303425570e-11      -9.166081318776e-15 
   26       1.319115083529e-10       1.729251567490e-15       2.234811143399e-13       2.871551696357e-17       2.070083631134e-10       2.088005845133e-11      -2.177913065438e-15 
   27       1.339486607168e-10       1.976822212109e-15       2.291489671383e-13       3.095470071106e-17       1.930515515758e-10       1.958709719012e-11       7.575290336335e-16 
   28       1.359924214337e-10       2.250652878130e-15       2.353801030680e-13       3.327885022344e-17       1.803399335954e-10       1.839401590788e-11       2.093021495334e-17 
   29       1.380523873690e-10       2.550245294884e-15       2.418798578577e-13       3.568794730758e-17       1.688089730845e-10       1.729664744563e-11      -3.598702762780e-15 
   30       1.401428140794e-10       2.876770718928e-15       2.482141482208e-13       3.818197268002e-17       1.583352393569e-10       1.629655136691e-11      -8.899834156981e-15 
   31       1.422677996845e-10       3.230787158728e-15       2.538686747384e-13       4.076090817519e-17       1.487055638175e-10       1.538607852178e-11      -1.447241972779e-14 
   32       1.444302266777e-10       3.610201453327e-15       2.584606704588e-13       4.342477192327e-17       1.398704958200e-10       1.455613074626e-11      -1.946184125207e-14 
   33       1.466234939468e-10       4.011444407481e-15       2.615954281159e-13       4.617359928008e-17       1.317678180681e-10       1.378940536131e-11      -2.306463250575e-14 
   34       1.488349430510e-10       4.431442427667e-15       2.628945402722e-13       4.900744104518e-17       1.242844494461e-10       1.306468595453e-11      -2.454347031871e-14 
   35       1.510710523522e-10       4.872886999511e-15       2.623013307029e-13       5.192638193695e-17       1.173822762287e-10       1.238241554190e-11      -2.400009232111e-14 
   36       1.533394325407e-10       5.340877367882e-15       2.598848748319e-13       5.493053254510e-17       1.110061087321e-10       1.174720789375e-11      -2.188342394598e-14 
   37       1.556424116980e-10       5.840678774945e-15       2.557547477766e-13       5.802002448180e-17       1.050731757692e-10       1.116080637791e-11      -1.874438125411e-14 
   38       1.579804333022e-10       6.374524150885e-15       2.500317964022e-13       6.119500202985e-17       9.956826473284e-11       1.062213604404e-11      -1.505262074984e-14 
   39       1.603485720573e-10       6.943799849968e-15       2.428731591166e-13       6.445563164647e-17       9.447401282386e-11       1.012672634604e-11      -1.133407411422e-14 
   40       1.627347515986e-10       7.549899979984e-15       2.344838708826e-13       6.780210705169e-17       8.974196332509e-11       9.666289497734e-12      -8.229156867359e-15 
   41       1.651252882318e-10       8.193985438628e-15       2.250582158241e-13       7.123463807309e-17       8.530947275443e-11       9.231364560696e-12      -6.331963946926e-15 
   42       1.675253306035e-10       8.876170752241e-15       2.145737724053e-13       7.475340744930e-17       8.116357382818e-11       8.821050235820e-12      -5.627861878409e-15 
   43       1.699439269635e-10       9.596069675418e-15       2.029352600644e-13       7.835860371988e-17       7.729333548709e-11       8.435904566844e-12      -5.884742683086e-15 
   44       1.723881255274e-10       1.035299380195e-14       1.900290565611e-13       8.205043468496e-17       7.367069758291e-11       8.075143333028e-12      -6.800739859112e-15 
   45       1.748626168801e-10       1.114621783389e-14       1.757287905089e-13       8.582910531737e-17       7.026051108838e-11       7.737102617501e-12      -8.046113775282e-15 
   46       1.773691322300e-10       1.197591271185e-14       1.599172013399e-13       8.969474054657e-17       6.705745251224e-11       7.421061697039e-12      -9.414389184798e-15 
   47       1.799064332086e-10       1.284246059255e-14       1.424685851067e-13       9.364744161212e-17       6.405782513570e-11       7.125770025888e-12      -1.070878713082e-14 
   48       1.824701466497e-10       1.374619388262e-14       1.232415692368e-13       9.768730741367e-17       6.124842393616e-11       6.848837951167e-12      -1.169802612263e-14 
   49       1.850525046314e-10       1.468739341793e-14       1.020781994254e-13       1.018144344699e-16       5.860582831976e-11       6.586655264228e-12      -1.211451564384e-14 
   50       1.876455199918e-10       1.566628504586e-14       7.884671911272e-14       1.060288957586e-16       5.610346325814e-11       6.335446782585e-12      -1.173977553070e-14 
   51       1.902521321403e-10       1.668303250241e-14       5.358571575763e-14       1.103306705620e-16       5.373668312298e-11       6.094965842752e-12      -1.069221936908e-14 
   52       1.928776372985e-10       1.773773945450e-14       2.639752307850e-14       1.147196955075e-16       5.150327401969e-11       5.865662575318e-12      -9.214364015651e-15 
   53       1.955264214948e-10       1.883044907723e-14      -2.590935916805e-15       1.191958830123e-16       4.939594688139e-11       5.647607220152e-12      -7.594674815125e-15 
   54       1.982018622767e-10       1.996114215804e-14      -3.322700591664e-14       1.237591202481e-16       4.740199577349e-11       5.440462185085e-12      -6.169863855253e-15 
   55       2.009063539257e-10       2.112976449674e-14      -6.536888854539e-14       1.284092697320e-16       4.550717911475e-11       5.243672798075e-12      -5.245963311609e-15 
   56       2.036416156070e-10       2.233632141969e-14      -9.900867276697e-14       1.331461736430e-16       4.370927521647e-11       5.057159066258e-12      -4.833319907009e-15 
   57       2.064082876122e-10       2.358080342430e-14      -1.341778657956e-13       1.379696487646e-16       4.200729572378e-11       4.880746823292e-12      -4.849792960842e-15 
   58       2.092057231214e-10       2.486315820226e-14      -1.709126585749e-13       1.428794840036e-16       4.039738442754e-11       4.713945094029e-12      -5.195363911621e-15 
   59       2.120318947276e-10       2.618328988512e-14      -2.092542528516e-13       1.478754394177e-16       3.887264009804e-11       4.555926673731e-12      -5.751269965127e-15 
   60       2.148833009602e-10       2.754105828987e-14      -2.492491882493e-13       1.529572452443e-16       3.742293931878e-11       4.405508707279e-12      -6.379137742548e-15 
   61       2.177564403021e-10       2.893622356754e-14      -2.909402625782e-13       1.581246357120e-16       3.603775006705e-11       4.261470639473e-12      -6.949542105422e-15 
   62       2.206528313374e-10       3.036826733726e-14      -3.343361712711e-13       1.633774615414e-16       3.471571124637e-11       4.123635398313e-12      -7.437133413334e-15 
   63       2.235749586832e-10       3.183652988240e-14      -3.794356025773e-13       1.687156010869e-16       3.345689878394e-11       3.991997536823e-12      -7.845422417568e-15 
   64       2.265247620554e-10       3.334025876720e-14      -4.262360710166e-13       1.741389279119e-16       3.225994398144e-11       3.866398733158e-12      -8.179305208911e-15 
   65       2.295035925282e-10       3.487860635010e-14      -4.747339459832e-13       1.796473109208e-16       3.112195124289e-11       3.746519074346e-12      -8.445130504409e-15 
   66       2.325121687939e-10       3.645062729693e-14      -5.249244803503e-13       1.852406144910e-16       3.003841580259e-11       3.631868340026e-12      -8.650766934110e-15 
   67       2.355505334216e-10       3.805527609422e-14      -5.768018390738e-13       1.909186986050e-16       2.900314145293e-11       3.521777286188e-12      -8.805670327821e-15 
   68       2.386185035417e-10       3.969151371477e-14      -6.303575550083e-13       1.966814581975e-16       2.800989662360e-11       3.415585584446e-12      -8.919964812500e-15 
   69       2.417172267152e-10       4.135865827102e-14      -6.855754690788e-13       2.025289501585e-16       2.705795618737e-11       3.313269344280e-12      -9.001319486407e-15 
   70       2.448478631953e-10       4.305610127243e-14      -7.424358115293e-13       2.084612924198e-16       2.614753993225e-11       3.214925669271e-12      -9.057556845928e-15 
   71       2.480110888585e-10       4.478320505917e-14      -8.009166725854e-13       2.144786281318e-16       2.527813643013e-11       3.120583631355e-12      -9.097624289418e-15 
   72       2.512070641095e-10       4.653930310694e-14      -8.609939908328e-13       2.205811267989e-16       2.444846522377e-11       3.030200584111e-12      -9.131636181711e-15 
   73       2.544354027853e-10       4.832370033188e-14      -9.226415415974e-13       2.267689854139e-16       2.365643901378e-11       2.943658476058e-12      -9.170915918640e-15 
   74       2.576951410599e-10       5.013567339543e-14      -9.858309253243e-13       2.330424295938e-16       2.289912584561e-11       2.860760163945e-12      -9.228037991549e-15 
   75       2.609847063484e-10       5.197447100919e-14      -1.050531555957e-12       2.394017147143e-16       2.217271129656e-11       2.781225726041e-12      -9.316870051813e-15 
   76       2.643025560366e-10       5.383917130759e-14      -1.116708600381e-12       2.458471153316e-16       2.147344596776e-11       2.704766450323e-12      -9.448583033251e-15 
   77       2.676492968730e-10       5.572822326514e-14      -1.184316388637e-12       2.523788887109e-16       2.080077101907e-11       2.631330525042e-12      -9.618748560438e-15 
   78       2.710258973595e-10       5.763982181976e-14      -1.253303775334e-12       2.589973066784e-16       2.015469653997e-11       2.560895661166e-12      -9.817954181952e-15 
   79       2.744330351334e-10       5.957204080276e-14      -1.323616029210e-12       2.657026676253e-16       1.953484948390e-11       2.493393332082e-12      -1.003558662518e-14 
   80       2.778710796075e-10       6.152283031270e-14      -1.395194779498e-12       2.724952974020e-16       1.894045605975e-11       2.428706679673e-12      -1.025979118260e-14 
   81       2.813400746101e-10       6.349001408942e-14      -1.467977962287e-12       2.793755502138e-16       1.837032412327e-11       2.366668420399e-12      -1.047743109805e-14 
   82       2.848397210242e-10       6.547128688787e-14      -1.541899766891e-12       2.863438095151e-16       1.782282556861e-11       2.307058751372e-12      -1.067404695301e-14 
   83       2.883693594277e-10       6.746421185213e-14      -1.616890582210e-12       2.934004889044e-16       1.729587871970e-11       2.249603256438e-12      -1.083381605289e-14 
   84       2.919283289654e-10       6.946645325093e-14      -1.692884540237e-12       3.005459909779e-16       1.678745460266e-11       2.194038320582e-12      -1.094284089813e-14 
   85       2.955171503488e-10       7.147652476738e-14      -1.769843700930e-12       3.077805740916e-16       1.629723076659e-11       2.140324419699e-12      -1.099972993647e-14 
   86       2.991365080553e-10       7.349316102186e-14      -1.847737796983e-12       3.151044650489e-16       1.582518062159e-11       2.088464515052e-12      -1.100670456755e-14 
   87       3.027868806589e-10       7.551509454985e-14      -1.926537066115e-12       3.225178993639e-16       1.537106526054e-11       2.038438743567e-12      -1.096644112564e-14 
   88       3.064685297925e-10       7.754105713154e-14      -2.006212325117e-12       3.300211214496e-16       1.493442465528e-11       1.990203458508e-12      -1.088208621694e-14 
   89       3.101814891115e-10       7.956978112142e-14      -2.086735043900e-12       3.376143848060e-16       1.451456885276e-11       1.943690270147e-12      -1.075727205686e-14 
   90       3.139255532566e-10       8.160000077783e-14      -2.168077419540e-12       3.452979522086e-16       1.411056917130e-11       1.898805086441e-12      -1.059613180727e-14 
   91       3.177002668170e-10       8.363045359260e-14      -2.250212450330e-12       3.530720958968e-16       1.372124939668e-11       1.855427153700e-12      -1.040331491382e-14 
   92       3.215049132930e-10       8.565988162061e-14      -2.333114009823e-12       3.609370977616e-16       1.334517697840e-11       1.813408097261e-12      -1.018400244323e-14 
   93       3.253387697117e-10       8.768693144398e-14      -2.416749514312e-12       3.688932673913e-16       1.298100312530e-11       1.772608452851e-12      -9.943409059885e-15 
   94       3.292019382513e-10       8.970983396619e-14      -2.501056502929e-12       3.769409989017e-16       1.262856072585e-11       1.733015629333e-12      -9.685169961106e-15 
   95       3.330946198684e-10       9.172667869318e-14      -2.585962655704e-12       3.850807230410e-16       1.228791604611e-11       1.694641996417e-12      -9.412738565099e-15 
   96       3.370168524993e-10       9.373551074665e-14      -2.671392859040e-12       3.933128905219e-16       1.195903058275e-11       1.657488536043e-12      -9.129886434376e-15 
   97       3.409685036695e-10       9.573433080226e-14      -2.757269178087e-12       4.016379724551e-16       1.164175704842e-11       1.621544397682e-12      -8.840711566221e-15 
   98       3.449492631030e-10       9.772109502780e-14      -2.843510829123e-12       4.100564607826e-16       1.133583535733e-11       1.586786453637e-12      -8.549646683152e-15 
   99       3.489586353321e-10       9.969371502130e-14      -2.930034151931e-12       4.185688687112e-16       1.104088861063e-11       1.553178854343e-12      -8.261467523392e-15 
  100       3.529959323069e-10       1.016500577492e-13      -3.016752582178e-12       4.271757311459e-16       1.075641908194e-11       1.520672583672e-12      -7.981301131333e-15 
  101       3.570602660048e-10       1.035879454847e-13      -3.103576623794e-12       4.358776051230e-16       1.048180420277e-11       1.489205014228e-12      -7.714634147998e-15 
  102       3.611505410404e-10       1.055051557456e-13      -3.190413821352e-12       4.446750702438e-16       1.021629254802e-11       1.458699462654e-12      -7.467321101512e-15 
  103       3.652654472747e-10       1.073994212325e-13      -3.277168732442e-12       4.535687291080e-16       9.958999821472e-12       1.429064744928e-12      -7.245592697564e-15 
  104       3.694037389149e-10       1.092685358148e-13      -3.363749108616e-12       4.625592238734e-16       9.709109422541e-12       1.400216294508e-12      -7.054619027016e-15 
  105       3.735651306698e-10       1.111106889248e-13      -3.450085448614e-12       4.716472875507e-16       9.466513649914e-12       1.372143723521e-12      -6.893960287371e-15 
  106       3.777495094376e-10       1.129241764303e-13      -3.536114047292e-12       4.808337004782e-16       9.231252034200e-12       1.344851601543e-12      -6.761514115015e-15 
  107       3.819566544353e-10       1.147072997110e-13      -3.621771063050e-12       4.901192754172e-16       9.003312746302e-12       1.318338502512e-12      -6.654898292398e-15 
