# dimensionless total lensed [l(l+1)/2pi] C_l's
# for l=2 to 2600, i.e. number of multipoles equal to 2599
#
# -> if you prefer output in CAMB/HealPix/LensPix units/order, set 'format' to 'camb' in input file
# -> if you don't want to see such a header, set 'headers' to 'no' in input file
# -> for CMB lensing (phi), these are C_l^phi-phi for the lensing potential.
#    Remember the conversion factors:
#    C_l^dd (deflection) = l(l+1) C_l^phi-phi
#    C_l^gg (shear/convergence) = 1/4 (l(l+1))^2 C_l^phi-phi
#
# 1:l     2:TT                     3:EE                     4:TE                     5:BB                     6:phiphi                 7:TPhi                   8:Ephi               
    2       1.456666006251e-10       7.096328893630e-15       4.670714887718e-13       2.394166243506e-19       8.637959677155e-09       4.777576900062e-10      -2.443324159504e-12 
    3       1.374704657544e-10       1.204095820364e-14       5.892112466469e-13       4.790042457198e-19       5.338411930373e-09       3.407975888760e-10      -2.152389405599e-12 
    4       1.293483023748e-10       1.407583125714e-14       6.103625200049e-13       7.987159227534e-19       3.714102738534e-09       2.595260753959e-10      -1.718967924362e-12 
    5       1.229108728245e-10       1.302916425764e-14       5.722156237177e-13       1.198767317158e-18       2.772168949289e-09       2.060287577970e-10      -1.277058679298e-12 
    6       1.181767925293e-10       1.006105491172e-14       5.039868593750e-13       1.679417704766e-18       2.166106187395e-09       1.683269057575e-10      -8.732120328322e-13 
    7       1.148648267035e-10       6.672753080199e-15       4.255601178683e-13       2.240963588319e-18       1.748357295938e-09       1.404900934363e-10      -5.314170220966e-13 
    8       1.126667768350e-10       3.946268646004e-15       3.489376404203e-13       2.883731492151e-18       1.445671345255e-09       1.192107106092e-10      -2.624524548143e-13 
    9       1.113461995156e-10       2.284340303364e-15       2.812355413267e-13       3.608070163465e-18       1.218076950608e-09       1.025019468023e-10      -6.812070020404e-14 
   10       1.106958899531e-10       1.540212102923e-15       2.264575808686e-13       4.414342422109e-18       1.041750026737e-09       8.912687566199e-11       5.662493077653e-14 
   11       1.105798174591e-10       1.321842805800e-15       1.863069015586e-13       5.302916909906e-18       8.778685217274e-10       7.851984994871e-11       1.210493568801e-13 
   12       1.108934718966e-10       1.267347124523e-15       1.605277874749e-13       6.274159991386e-18       7.672803871908e-10       6.942544008152e-11       1.394521750678e-13 
   13       1.115199701529e-10       1.183141116291e-15       1.474047028891e-13       7.328428050296e-18       6.764752340353e-10       6.199042737989e-11       1.252877567103e-13 
   14       1.123631481903e-10       1.041823250673e-15       1.444133934398e-13       8.466060410710e-18       6.009034160921e-10       5.554477263535e-11       9.103129786536e-14 
   15       1.134301252522e-10       9.021251819284e-16       1.486682130579e-13       9.687373088479e-18       5.372767936892e-10       5.015981691105e-11       4.867508250997e-14 
   16       1.146827231889e-10       8.242091078276e-16       1.572197641964e-13       1.099265354910e-17       4.831671242086e-10       4.559604184628e-11       7.137070221396e-15 
   17       1.160400868579e-10       8.252077860952e-16       1.675527236848e-13       1.238215661261e-17       4.367398477674e-10       4.165553281115e-11      -2.736308702924e-14 
   18       1.175058357626e-10       8.783768129930e-16       1.778711157315e-13       1.385610109264e-17       3.964344474589e-10       3.815486483755e-11      -5.134509853603e-14 
   19       1.190878480533e-10       9.516075877306e-16       1.872475815351e-13       1.541467082380e-17       3.616147843869e-10       3.506491106993e-11      -6.392746672268e-14 
   20       1.207319260288e-10       1.011922358312e-15       1.949666904394e-13       1.705800874096e-17       3.309410019588e-10       3.233333653030e-11      -6.589898263597e-14 
   21       1.224499726920e-10       1.062281727712e-15       2.010694933260e-13       1.878622588847e-17       3.039331841135e-10       2.991627546021e-11      -5.934862046483e-14 
   22       1.242418039421e-10       1.120614026540e-15       2.059556117857e-13       2.059939480379e-17       2.799471276989e-10       2.773314933826e-11      -4.756095482907e-14 
   23       1.260965462659e-10       1.205941198469e-15       2.101081701508e-13       2.249756260507e-17       2.586543067360e-10       2.575359756185e-11      -3.344058283876e-14 
   24       1.279824764857e-10       1.336450242355e-15       2.141015713752e-13       2.448074429243e-17       2.395636876004e-10       2.394510266339e-11      -2.004758201607e-14 
   25       1.299166631026e-10       1.512539398058e-15       2.183887388232e-13       2.654894085113e-17       2.224516943802e-10       2.231783690023e-11      -9.200382802102e-15 
   26       1.319118815053e-10       1.727345043422e-15       2.233495612916e-13       2.870213069254e-17       2.070095937146e-10       2.087502529540e-11      -2.217501078691e-15 
   27       1.339492379803e-10       1.974613016873e-15       2.290195059918e-13       3.094028732163e-17       1.930527468163e-10       1.958376378510e-11       7.128670418102e-16 
   28       1.359931179520e-10       2.248095170113e-15       2.352543092297e-13       3.326337426917e-17       1.803410841349e-10       1.839304872345e-11      -2.544647563538e-17 
   29       1.380531278184e-10       2.547295770470e-15       2.417588392128e-13       3.567137320681e-17       1.688100709842e-10       1.729817736138e-11      -3.644820679115e-15 
   30       1.401436008811e-10       2.873385028139e-15       2.480968122316e-13       3.816426455953e-17       1.583362860080e-10       1.630017934660e-11      -8.947094923763e-15 
   31       1.422687108433e-10       3.226922392905e-15       2.537519533650e-13       4.074202972414e-17       1.487065695140e-10       1.539089384774e-11      -1.452542701345e-14 
   32       1.444313229333e-10       3.605825528497e-15       2.583425789928e-13       4.340468629240e-17       1.398714694986e-10       1.456126357988e-11      -1.952425351719e-14 
   33       1.466247818419e-10       4.006541530968e-15       2.614764029218e-13       4.615226893055e-17       1.317687630541e-10       1.379425191224e-11      -2.313745241209e-14 
   34       1.488363750040e-10       4.426010101691e-15       2.627772640271e-13       4.898482761751e-17       1.242853633050e-10       1.306893612966e-11      -2.462477688426e-14 
   35       1.510725776963e-10       4.866908854189e-15       2.621876749751e-13       5.190244627390e-17       1.173831565810e-10       1.238584723182e-11      -2.408641398383e-14 
   36       1.533410154266e-10       5.334311306276e-15       2.597746961453e-13       5.490523459883e-17       1.110069551513e-10       1.174963743642e-11      -2.197000979630e-14 
   37       1.556440339721e-10       5.833458334234e-15       2.556461140368e-13       5.799332326475e-17       1.050739897335e-10       1.116211051035e-11      -1.882570796457e-14 
   38       1.579820906334e-10       6.366584778423e-15       2.499236293461e-13       6.116685588225e-17       9.956904822271e-11       1.062230506149e-11      -1.512522181574e-14 
   39       1.603502750142e-10       6.935088486341e-15       2.427662696634e-13       6.442599828696e-17       9.447476782206e-11       1.012589880647e-11      -1.139786254394e-14 
   40       1.627365287841e-10       7.540378238182e-15       2.343813822535e-13       6.777094354280e-17       8.974269166067e-11       9.664780752425e-12      -8.288188151492e-15 
   41       1.651271842228e-10       8.183628511550e-15       2.249650776392e-13       7.120190090193e-17       8.531017600015e-11       9.229636055650e-12      -6.393658984945e-15 
   42       1.675273858116e-10       8.864951335029e-15       2.144931276563e-13       7.471905299868e-17       8.116425341331e-11       8.819473898077e-12      -5.696891771934e-15 
   43       1.699461700137e-10       9.583952343316e-15       2.028669796391e-13       7.832258847591e-17       7.729399264081e-11       8.434668226503e-12      -5.960594477577e-15 
   44       1.723905703417e-10       1.033993334688e-14       1.899690841041e-13       8.201271534806e-17       7.367133320657e-11       8.074208835038e-12      -6.876660018500e-15 
   45       1.748652629491e-10       1.113215789541e-14       1.756697863860e-13       8.578963897386e-17       7.026112573350e-11       7.736227309381e-12      -8.110020673128e-15 
   46       1.773719760031e-10       1.196078563582e-14       1.598536351501e-13       8.965348502512e-17       6.705804673640e-11       7.420038529212e-12      -9.456538258331e-15 
   47       1.799094713878e-10       1.282618625619e-14       1.423986459936e-13       9.360435572396e-17       6.405839957707e-11       7.124510143598e-12      -1.072459846034e-14 
   48       1.824733764212e-10       1.372867807862e-14       1.231678937270e-13       9.764235115560e-17       6.124897927939e-11       6.847394344975e-12      -1.168911179662e-14 
   49       1.850559239143e-10       1.466852615968e-14       1.020086388516e-13       1.017675692381e-16       5.860636525888e-11       6.585247714509e-12      -1.208976307450e-14 
   50       1.876491275281e-10       1.564595086923e-14       7.879369543114e-14       1.059800844910e-16       5.610398247935e-11       6.334434177255e-12      -1.171432538840e-14 
   51       1.902559270218e-10       1.666116077881e-14       5.356079899810e-14       1.102798776160e-16       5.373718536070e-11       6.094640772060e-12      -1.067932384683e-14 
   52       1.928816189327e-10       1.771432541698e-14       2.640955855211e-14       1.146668867500e-16       5.150376005394e-11       5.866177645442e-12      -9.222528923321e-15 
   53       1.955305897385e-10       1.880556419825e-14      -2.536390607251e-15       1.191410259918e-16       4.939641751217e-11       5.648949857298e-12      -7.626749424746e-15 
   54       1.982062175781e-10       1.993494501660e-14      -3.312827257313e-14       1.237021843745e-16       4.740245179307e-11       5.442428196137e-12      -6.222084987008e-15 
   55       2.009108970912e-10       2.110248326836e-14      -6.522790449586e-14       1.283502262259e-16       4.550762128384e-11       5.245889024730e-12      -5.308601153612e-15 
   56       2.036463463160e-10       2.230814185831e-14      -9.882784560105e-14       1.330849947087e-16       4.370970425714e-11       5.059270450025e-12      -4.896699825811e-15 
   57       2.064132038871e-10       2.355182873160e-14      -1.339591439701e-13       1.379063073591e-16       4.200771229638e-11       4.882477724795e-12      -4.906196681679e-15 
   58       2.092108211459e-10       2.483339508524e-14      -1.706574179671e-13       1.428139538235e-16       4.039778910050e-11       4.715114555915e-12      -5.239418242547e-15 
   59       2.120371686584e-10       2.615263397839e-14      -2.089631775668e-13       1.478076948845e-16       3.887303331605e-11       4.556464401292e-12      -5.780353949876e-15 
   60       2.148887427319e-10       2.750927894264e-14      -2.489221456824e-13       1.528872614872e-16       3.742332136911e-11       4.405471766795e-12      -6.393808242117e-15 
   61       2.177620406119e-10       2.890298067275e-14      -2.905764453559e-13       1.580523883516e-16       3.603812108927e-11       4.261031054862e-12      -6.953267896739e-15 
   62       2.206585844950e-10       3.033323412863e-14      -3.339351228338e-13       1.633029258282e-16       3.471607138723e-11       4.122971185729e-12      -7.433731775420e-15 
   63       2.235808644548e-10       3.179943253014e-14      -3.789975481704e-13       1.686387515363e-16       3.345724823672e-11       3.991259801888e-12      -7.838307884010e-15 
   64       2.265308264273e-10       3.330088578885e-14      -4.257619964051e-13       1.740597381136e-16       3.226028298281e-11       3.865706451131e-12      -8.171398710408e-15 
   65       2.295098285012e-10       3.483681842292e-14      -4.742256790708e-13       1.795657533410e-16       3.112228006961e-11       3.745953641865e-12      -8.438764415071e-15 
   66       2.325185972078e-10       3.640636747189e-14      -5.243847757031e-13       1.851566602652e-16       3.003873476771e-11       3.631467898429e-12      -8.647586021527e-15 
   67       2.355571838110e-10       3.800858041148e-14      -5.762344653485e-13       1.908323173230e-16       2.900345090186e-11       3.521530816407e-12      -8.806528606895e-15 
   68       2.386254128615e-10       3.964250243474e-14      -6.297670004180e-13       1.965926178993e-16       2.801019692616e-11       3.415438206110e-12      -8.924961283296e-15 
   69       2.417244311050e-10       4.130746349318e-14      -6.849654046059e-13       2.024376180356e-16       2.705824771776e-11       3.313164374310e-12      -9.010292358945e-15 
   70       2.448553953432e-10       4.300284593902e-14      -7.418085487398e-13       2.083674349394e-16       2.614782305814e-11       3.214816993297e-12      -9.070205247752e-15 
   71       2.480189773767e-10       4.472800050186e-14      -8.002729772233e-13       2.143822109512e-16       2.527841150473e-11       3.120437364358e-12      -9.113494781217e-15 
   72       2.512153328851e-10       4.648224648904e-14      -8.603328894776e-13       2.204821146763e-16       2.444873257758e-11       3.029996795036e-12      -9.150108833490e-15 
   73       2.544440703068e-10       4.826487198606e-14      -9.219601213814e-13       2.266673421173e-16       2.365669894587e-11       2.943392976396e-12      -9.191189946440e-15 
   74       2.577042197192e-10       5.007513405696e-14      -9.851241267122e-13       2.329381178061e-16       2.289937861456e-11       2.860446360287e-12      -9.249116954712e-15 
   75       2.609942017181e-10       5.191225894472e-14      -1.049791958586e-12       2.392946959361e-16       2.217295711098e-11       2.780896536604e-12      -9.337546610795e-15 
   76       2.643124672108e-10       5.377530216105e-14      -1.115926866865e-12       2.457373501623e-16       2.147368498976e-11       2.704470910860e-12      -9.467499875883e-15 
   77       2.676596202793e-10       5.566269885803e-14      -1.183483836106e-12       2.522663383508e-16       2.080100341004e-11       2.631113203495e-12      -9.634704840404e-15 
   78       2.710366276908e-10       5.757263144771e-14      -1.252413196439e-12       2.588819334286e-16       2.015492247109e-11       2.560790230326e-12      -9.830010624992e-15 
   79       2.744441652460e-10       5.950315980944e-14      -1.322661889234e-12       2.655844350304e-16       1.953506913392e-11       2.493421193227e-12      -1.004309911230e-14 
   80       2.778826004164e-10       6.145221861718e-14      -1.394173420160e-12       2.723741703982e-16       1.894066961255e-11       2.428875539968e-12      -1.026244546475e-14 
   81       2.813519749821e-10       6.341761466682e-14      -1.466887812250e-12       2.792514952817e-16       1.837053176545e-11       2.366970824054e-12      -1.047527864221e-14 
   82       2.848519876689e-10       6.539702420351e-14      -1.540741558956e-12       2.862167948375e-16       1.782302748679e-11       2.307470564565e-12      -1.066754191981e-14 
   83       2.883819767861e-10       6.738799024892e-14      -1.615667577209e-12       2.932704845294e-16       1.729607509786e-11       2.250082105994e-12      -1.082385340558e-14 
   84       2.919412800460e-10       6.938816162106e-14      -1.691602200525e-12       3.004129687370e-16       1.678764562069e-11       2.194526876615e-12      -1.093068896713e-14 
   85       2.955304205912e-10       7.139606137555e-14      -1.768507593145e-12       3.076445067266e-16       1.629741660350e-11       2.140769234105e-12      -1.098662376797e-14 
   86       2.991500866669e-10       7.341044144770e-14      -1.846352982899e-12       3.149653260080e-16       1.582536145464e-11       2.088821810192e-12      -1.099372406623e-14 
   87       3.028007610586e-10       7.543005365548e-14      -1.925108021863e-12       3.223756628357e-16       1.537124126289e-11       2.038675575456e-12      -1.095449022178e-14 
   88       3.064827100700e-10       7.745365108888e-14      -2.004742857746e-12       3.298757623979e-16       1.493459599357e-11       1.990298915951e-12      -1.087187137209e-14 
   89       3.101959724987e-10       7.947998949929e-14      -2.085228205263e-12       3.374658790060e-16       1.451473568457e-11       1.943636709825e-12      -1.074928010810e-14 
   90       3.139403486137e-10       8.150782868890e-14      -2.166535417520e-12       3.451462762832e-16       1.411073164248e-11       1.898609403940e-12      -1.059060715008e-14 
   91       3.177153891316e-10       8.353593390001e-14      -2.248636557394e-12       3.529172273535e-16       1.372140763869e-11       1.855112090496e-12      -1.040023602351e-14 
   92       3.215203841934e-10       8.556307720447e-14      -2.331504468907e-12       3.607790150312e-16       1.334533110544e-11       1.813013583651e-12      -1.018305773491e-14 
   93       3.253546163993e-10       8.758793148162e-14      -2.415105653468e-12       3.687319494356e-16       1.298115323575e-11       1.772188801976e-12      -9.944034751743e-15 
   94       3.292181873875e-10       8.960873109416e-14      -2.499377517932e-12       3.767764234571e-16       1.262870691745e-11       1.732623492621e-12      -9.686786051212e-15 
   95       3.331112957701e-10       9.162356250929e-14      -2.584247820700e-12       3.849128660214e-16       1.228805841932e-11       1.694323623726e-12      -9.414815406675e-15 
   96       3.370339768532e-10       9.363046707887e-14      -2.669641534942e-12       3.931417258299e-16       1.195916923983e-11       1.657283022040e-12      -9.131951497443e-15 
   97       3.409860952379e-10       9.562744095442e-14      -2.755480821214e-12       4.014634717868e-16       1.164189209258e-11       1.621482906722e-12      -8.842356398006e-15 
   98       3.449673374217e-10       9.761243500205e-14      -2.841685000072e-12       4.098785934285e-16       1.133596689171e-11       1.586891423149e-12      -8.550534067268e-15 
   99       3.489772044001e-10       9.958335471739e-14      -2.928170524683e-12       4.183876013511e-16       1.104101673739e-11       1.553463176722e-12      -8.261338837782e-15 
  100       3.530150042680e-10       1.015380601406e-13      -3.014850953441e-12       4.269910276388e-16       1.075654390120e-11       1.521138766666e-12      -7.979983904983e-15 
  101       3.570798448207e-10       1.034743657713e-13      -3.101636922577e-12       4.356894262923e-16       1.048192581158e-11       1.489844319839e-12      -7.712049816421e-15 
  102       3.611706261557e-10       1.053900404835e-13      -3.188436118775e-12       4.444833736570e-16       1.021641103927e-11       1.459491024537e-12      -7.463492960993e-15 
  103       3.652860332741e-10       1.072828074405e-13      -3.275153251786e-12       4.533734688510e-16       9.959115282727e-12       1.429974664295e-12      -7.240654058181e-15 
  104       3.694248163985e-10       1.091504525367e-13      -3.361696221239e-12       4.623603509952e-16       9.709221936329e-12       1.401199765354e-12      -7.048798407512e-15 
  105       3.735866909892e-10       1.109911665889e-13      -3.447995624813e-12       4.714447526306e-16       9.466623298273e-12       1.373156758165e-12      -6.887493775434e-15 
  106       3.777715460804e-10       1.128032494268e-13      -3.533987846546e-12       4.806274543488e-16       9.231358899435e-12       1.345854418681e-12      -6.754621048019e-15 
  107       3.819791632337e-10       1.145850065879e-13      -3.619609138153e-12       4.899092692403e-16       9.003416910386e-12       1.319295992137e-12      -6.647779161425e-15 
