# Matter power spectrum P(k) at redshift z=0
# for k=1.04358e-05 to 1.48025 h/Mpc,
# number of wavenumbers equal to 610
#    1:k (h/Mpc)              2:P (Mpc/h)^3        
       1.043580880200e-05       5.042807502716e+01 
       2.351240772590e-05       1.106375321598e+02 
       3.663592206814e-05       1.699044495219e+02 
       4.984274372373e-05       2.288306267864e+02 
       6.316988045435e-05       2.877658485657e+02 
       7.665529593602e-05       3.469773299077e+02 
       9.033826093860e-05       4.066970847539e+02 
       1.042597204413e-04       4.671414092684e+02 
       1.184626815246e-04       5.285209683215e+02 
       1.329926269127e-04       5.910470003145e+02 
       1.478979590422e-04       6.549124541746e+02 
       1.632304794522e-04       7.203860512399e+02 
       1.790459080669e-04       7.876830752870e+02 
       1.954044464919e-04       8.570432454658e+02 
       2.123713886372e-04       9.287760898198e+02 
       2.300177806812e-04       1.003117827727e+03 
       2.484211303680e-04       1.080398331335e+03 
       2.676661626454e-04       1.160952869658e+03 
       2.878456143587e-04       1.245232317608e+03 
       3.090610547303e-04       1.333456859626e+03 
       3.314237102296e-04       1.426143703300e+03 
       3.550552616990e-04       1.523785677884e+03 
       3.800885678487e-04       1.626887436675e+03 
       4.066682522263e-04       1.735831227432e+03 
       4.349510706772e-04       1.851219684305e+03 
       4.651059539903e-04       1.974030387610e+03 
       4.973135978220e-04       2.104455969107e+03 
       5.317654526035e-04       2.243731980456e+03 
       5.686619553862e-04       2.391804628322e+03 
       6.082098509410e-04       2.549916117850e+03 
       6.506184798276e-04       2.718236277803e+03 
       6.960949754627e-04       2.897816469757e+03 
       7.448384161787e-04       3.089137917975e+03 
       7.970331204388e-04       3.292379665893e+03 
       8.528414406627e-04       3.508378164850e+03 
       9.123965763615e-04       3.736731124815e+03 
       9.757960513266e-04       3.978359499289e+03 
       1.043096539984e-03       4.232943541183e+03 
       1.114310653222e-03       4.499851246125e+03 
       1.189406098726e-03       4.778436218820e+03 
       1.268307344378e-03       5.068501767313e+03 
       1.350899594650e-03       5.368778420125e+03 
       1.437034610032e-03       5.678651451167e+03 
       1.480253419385e-03       5.832816995307e+03 
       1.526537717089e-03       5.996894214342e+03 
       1.619215299834e-03       6.322660501558e+03 
       1.714862123835e-03       6.654514758742e+03 
       1.813267987933e-03       6.991737207520e+03 
       1.914223378774e-03       7.332838582052e+03 
       2.017523979267e-03       7.677279899556e+03 
       2.122974026127e-03       8.023812888785e+03 
       2.230388611885e-03       8.371711819719e+03 
       2.339595083891e-03       8.720116483466e+03 
       2.450433714555e-03       9.068468399389e+03 
       2.562757814163e-03       9.415985158612e+03 
       2.676433439778e-03       9.757306764699e+03 
       2.791338829103e-03       1.012255850948e+04 
       2.907363662003e-03       1.044663116307e+04 
       3.024408228024e-03       1.080475586833e+04 
       3.142382557210e-03       1.111900905984e+04 
       3.261205554408e-03       1.148865956708e+04 
       3.380804163836e-03       1.180527614843e+04 
       3.501112580629e-03       1.206941842841e+04 
       3.622071518659e-03       1.243142602554e+04 
       3.743627538789e-03       1.274365288593e+04 
       3.865732438089e-03       1.310289563414e+04 
       3.988342698271e-03       1.336523526639e+04 
       4.111418990151e-03       1.367451753787e+04 
       4.234925730137e-03       1.401370144436e+04 
       4.358830684387e-03       1.427713267021e+04 
       4.483104616230e-03       1.457293076310e+04 
       4.607720972517e-03       1.489298768106e+04 
       4.732655604842e-03       1.514862217679e+04 
       4.857886521855e-03       1.543104856205e+04 
       4.983393669194e-03       1.568142189646e+04 
       5.109158733927e-03       1.598034436894e+04 
       5.235164970684e-03       1.622545480299e+04 
       5.361397046972e-03       1.649068901312e+04 
       5.487840905455e-03       1.672700505685e+04 
       5.614483641223e-03       1.700139622415e+04 
       5.741313392305e-03       1.723440917799e+04 
       5.868319241892e-03       1.747997011241e+04 
       5.995491130924e-03       1.770299982708e+04 
       6.122819779841e-03       1.795473247939e+04 
       6.250296618459e-03       1.817063392210e+04 
       6.377913723037e-03       1.838450758781e+04 
       6.505663759748e-03       1.860821220271e+04 
       6.633539933811e-03       1.881247391596e+04 
       6.761535943681e-03       1.903855965420e+04 
       6.889645939731e-03       1.923583824384e+04 
       7.017864486939e-03       1.942868373709e+04 
       7.146186531150e-03       1.962954304625e+04 
       7.274607368536e-03       1.981508688010e+04 
       7.403122617913e-03       1.999639862097e+04 
       7.531728195617e-03       2.019537826641e+04 
       7.660420292679e-03       2.036921847031e+04 
       7.789195354061e-03       2.053932366662e+04 
       7.918050059743e-03       2.071488455019e+04 
       8.046981307487e-03       2.087855410209e+04 
       8.175986197097e-03       2.103714350709e+04 
       8.305062016043e-03       2.120942974901e+04 
       8.434206226306e-03       2.136124668577e+04 
       8.563416452334e-03       2.150880796270e+04 
       8.692690470009e-03       2.166158955372e+04 
       8.822026196517e-03       2.180313619841e+04 
       8.951421681046e-03       2.193992568814e+04 
       9.080875096242e-03       2.208910141151e+04 
       9.210384730342e-03       2.221951002417e+04 
       9.339948979930e-03       2.234663980684e+04 
       9.469566343270e-03       2.247007138892e+04 
       9.599235414141e-03       2.259738910526e+04 
       9.728954876164e-03       2.271445998448e+04 
       9.858723497548e-03       2.282804787516e+04 
       9.988540126240e-03       2.295209465458e+04 
       1.011840368544e-02       2.305936432255e+04 
       1.024831316943e-02       2.316372945385e+04 
       1.037826763976e-02       2.326463801188e+04 
       1.050826622166e-02       2.336926900350e+04 
       1.063830810071e-02       2.346347776926e+04 
       1.076839251983e-02       2.355550245334e+04 
       1.089851877638e-02       2.364404209644e+04 
       1.102868621956e-02       2.374274949521e+04 
       1.115889424790e-02       2.382598327832e+04 
       1.128914230706e-02       2.390630566794e+04 
       1.141942988761e-02       2.398376221410e+04 
       1.154975652315e-02       2.405834391989e+04 
       1.168012178841e-02       2.413564598094e+04 
       1.181052529759e-02       2.420472869828e+04 
       1.194096670275e-02       2.427112057686e+04 
       1.207144569235e-02       2.433483482649e+04 
       1.220196198988e-02       2.440763912526e+04 
       1.233251535257e-02       2.446633285808e+04 
       1.246310557023e-02       2.452219584220e+04 
       1.259373246411e-02       2.457578696950e+04 
       1.272439588595e-02       2.462674309320e+04 
       1.285509571696e-02       2.468091256144e+04 
       1.298583186698e-02       2.472691797717e+04 
       1.311660427365e-02       2.477081422191e+04 
       1.324741290168e-02       2.481231374987e+04 
       1.337825774213e-02       2.485070224301e+04 
       1.350913881178e-02       2.489871814770e+04 
       1.364005615252e-02       2.493359666047e+04 
       1.377100983085e-02       2.496599076557e+04 
       1.390199993732e-02       2.499590625889e+04 
       1.403302658613e-02       2.502402809493e+04 
       1.416408991468e-02       2.505507859913e+04 
       1.429519008321e-02       2.507851596451e+04 
       1.442632727444e-02       2.510032205889e+04 
       1.455750169328e-02       2.511959166076e+04 
       1.468871356657e-02       2.513720714718e+04 
       1.480253419385e-02       2.515105683486e+04 
       1.481996314279e-02       2.515296489431e+04 
       1.495125069189e-02       2.517649551627e+04 
       1.508257650510e-02       2.518825739370e+04 
       1.521394089476e-02       2.519832488281e+04 
       1.534534419420e-02       2.520600834704e+04 
       1.547678675763e-02       2.521236900070e+04 
       1.560826896006e-02       2.521647522578e+04 
       1.573979119725e-02       2.522370462225e+04 
       1.587135388568e-02       2.522467931573e+04 
       1.600295746251e-02       2.522336373861e+04 
       1.613460238562e-02       2.522088896976e+04 
       1.626628913364e-02       2.521637068043e+04 
       1.639801820596e-02       2.520989735762e+04 
       1.652979012286e-02       2.521173618963e+04 
       1.666160542554e-02       2.520223408395e+04 
       1.679346467627e-02       2.519142940921e+04 
       1.692536845850e-02       2.517879679469e+04 
       1.705731737699e-02       2.516490190891e+04 
       1.718931205801e-02       2.514918342709e+04 
       1.732135314947e-02       2.513641539517e+04 
       1.745344132116e-02       2.511817707121e+04 
       1.758557726493e-02       2.509801167199e+04 
       1.771776169496e-02       2.507669408778e+04 
       1.784999534796e-02       2.505365203815e+04 
       1.798227898346e-02       2.502967489224e+04 
       1.811461338410e-02       2.500372933654e+04 
       1.824699935591e-02       2.498539091138e+04 
       1.837943772863e-02       2.495718096066e+04 
       1.851192935605e-02       2.492793741609e+04 
       1.864447511633e-02       2.489707576812e+04 
       1.877707591241e-02       2.486544071039e+04 
       1.890973267235e-02       2.483197790892e+04 
       1.904244634975e-02       2.479780613469e+04 
       1.917521792415e-02       2.476207050060e+04 
       1.930804840150e-02       2.472943914365e+04 
       1.944093881456e-02       2.469150589545e+04 
       1.957389022340e-02       2.465287309445e+04 
       1.970690371589e-02       2.461255103204e+04 
       1.983998040819e-02       2.457168394191e+04 
       1.997312144528e-02       2.452919571730e+04 
       2.010632800151e-02       2.448619661137e+04 
       2.023960128114e-02       2.444933223554e+04 
       2.037294251895e-02       2.440414374699e+04 
       2.050635298082e-02       2.435809062071e+04 
       2.063983396438e-02       2.431086901188e+04 
       2.077338679962e-02       2.426297406731e+04 
       2.090701284956e-02       2.421395022843e+04 
       2.104071351097e-02       2.416411066097e+04 
       2.117449021503e-02       2.411326799737e+04 
       2.130834442812e-02       2.406161624506e+04 
       2.144227765250e-02       2.401268673599e+04 
       2.157629142718e-02       2.395955250125e+04 
       2.171038732863e-02       2.390534170368e+04 
       2.184456697170e-02       2.385033691549e+04 
       2.197883201041e-02       2.379471192912e+04 
       2.211318413885e-02       2.373818436567e+04 
       2.224762509212e-02       2.368100544153e+04 
       2.238215664722e-02       2.362304608797e+04 
       2.251678062407e-02       2.357100010642e+04 
       2.265149888648e-02       2.351179006592e+04 
       2.278631334317e-02       2.345174735686e+04 
       2.292122594886e-02       2.339126227985e+04 
       2.305623870533e-02       2.332985445957e+04 
       2.319135366261e-02       2.326807863622e+04 
       2.332657292008e-02       2.320543345274e+04 
       2.346189862770e-02       2.314221403466e+04 
       2.359733298724e-02       2.307867773447e+04 
       2.373287825358e-02       2.301722266058e+04 
       2.386853673601e-02       2.295247643867e+04 
       2.400431079958e-02       2.288705832199e+04 
       2.414020286653e-02       2.282115968733e+04 
       2.427621541771e-02       2.275469404595e+04 
       2.441235099410e-02       2.268768361922e+04 
       2.454861219833e-02       2.262017693862e+04 
       2.468500169627e-02       2.255241640974e+04 
       2.482152221870e-02       2.248390345813e+04 
       2.495817656296e-02       2.241526477626e+04 
       2.509496759475e-02       2.235150306661e+04 
       2.523189824991e-02       2.228189450694e+04 
       2.536897153627e-02       2.221183049805e+04 
       2.550619053563e-02       2.214133629905e+04 
       2.564355840570e-02       2.207037684325e+04 
       2.578107838219e-02       2.199931898820e+04 
       2.591875378092e-02       2.192748779879e+04 
       2.605658800004e-02       2.185578431667e+04 
       2.619458452228e-02       2.178333943846e+04 
       2.633274691732e-02       2.171064380673e+04 
       2.647107884421e-02       2.164044823680e+04 
       2.660958405390e-02       2.156709911098e+04 
       2.674826639183e-02       2.149371241099e+04 
       2.688712980062e-02       2.141981349650e+04 
       2.702617832287e-02       2.134572059886e+04 
       2.716541610406e-02       2.127132543752e+04 
       2.730484739551e-02       2.119686561764e+04 
       2.744447655749e-02       2.112181636093e+04 
       2.758430806242e-02       2.104675978517e+04 
       2.772434649824e-02       2.097154401146e+04 
       2.786459657177e-02       2.090059037505e+04 
       2.800506311237e-02       2.082507578507e+04 
       2.814575107561e-02       2.074912340928e+04 
       2.828666554709e-02       2.067305446881e+04 
       2.842781174646e-02       2.059679317580e+04 
       2.856919503158e-02       2.052064779268e+04 
       2.871082090275e-02       2.044397878174e+04 
       2.885269500724e-02       2.036740483126e+04 
       2.899482314387e-02       2.029053017340e+04 
       2.913721126789e-02       2.021347387600e+04 
       2.927986549593e-02       2.013649273226e+04 
       2.942279211123e-02       2.006129706906e+04 
       2.956599756903e-02       1.998398267642e+04 
       2.970948850224e-02       1.990649395010e+04 
       2.985327172727e-02       1.982911101006e+04 
       2.999735425014e-02       1.975123060620e+04 
       3.014174327281e-02       1.967359535968e+04 
       3.028644619982e-02       1.959589377540e+04 
       3.043147064517e-02       1.951796431623e+04 
       3.057682443950e-02       1.944011871212e+04 
       3.072251563759e-02       1.936226853030e+04 
       3.086855252616e-02       1.928417813926e+04 
       3.101494363204e-02       1.920629196918e+04 
       3.116169773065e-02       1.913197361154e+04 
       3.130882385491e-02       1.905392873691e+04 
       3.145633130451e-02       1.897578920227e+04 
       3.160422965559e-02       1.889780761829e+04 
       3.175252877091e-02       1.881969116651e+04 
       3.190123881043e-02       1.874152102538e+04 
       3.205037024240e-02       1.866350302672e+04 
       3.219993385497e-02       1.858539512406e+04 
       3.234994076835e-02       1.850726356652e+04 
       3.250040244754e-02       1.842929760238e+04 
       3.265133071567e-02       1.835117721361e+04 
       3.280273776799e-02       1.827477265187e+04 
       3.295463618654e-02       1.819672705717e+04 
       3.310703895557e-02       1.811887163412e+04 
       3.325995947765e-02       1.804090487022e+04 
       3.341341159072e-02       1.796302851664e+04 
       3.356740958590e-02       1.788526674868e+04 
       3.372196822623e-02       1.780741165782e+04 
       3.387710276645e-02       1.772964551998e+04 
       3.403282897374e-02       1.765206690998e+04 
       3.418916314963e-02       1.757436363181e+04 
       3.434612215297e-02       1.749679568324e+04 
       3.450372342432e-02       1.741913073603e+04 
       3.466198501149e-02       1.734484753568e+04 
       3.482092559664e-02       1.726748404491e+04 
       3.498056452478e-02       1.719020504967e+04 
       3.514092183400e-02       1.711307812519e+04 
       3.530201828731e-02       1.703591327463e+04 
       3.546387540639e-02       1.695883853814e+04 
       3.562651550733e-02       1.688195266626e+04 
       3.578996173843e-02       1.680502415096e+04 
       3.595423812031e-02       1.672821100099e+04 
       3.611936958842e-02       1.665156586108e+04 
       3.628538203816e-02       1.657485927318e+04 
       3.645230237284e-02       1.649829878903e+04 
       3.662015855459e-02       1.642178573961e+04 
       3.678897965856e-02       1.634683714650e+04 
       3.695879593055e-02       1.627051702310e+04 
       3.712963884849e-02       1.619427283708e+04 
       3.730154118791e-02       1.611822224474e+04 
       3.747453709175e-02       1.604216931018e+04 
       3.764866214504e-02       1.596619470174e+04 
       3.782395345456e-02       1.589041065340e+04 
       3.800044973413e-02       1.581457102512e+04 
       3.817819139589e-02       1.573887195734e+04 
       3.835722064810e-02       1.566319853705e+04 
       3.853758160004e-02       1.558774257643e+04 
       3.871932037463e-02       1.551212699617e+04 
       3.890248522941e-02       1.543915395756e+04 
       3.908712668673e-02       1.536390179199e+04 
       3.927329767388e-02       1.528863809156e+04 
       3.946105367414e-02       1.521346587417e+04 
       3.965045288984e-02       1.513843485865e+04 
       3.984155641841e-02       1.506335531616e+04 
       4.003442844285e-02       1.498837699374e+04 
       4.022913643797e-02       1.491342227333e+04 
       4.042575139393e-02       1.483861114050e+04 
       4.062434805896e-02       1.476374337324e+04 
       4.082500520308e-02       1.468897540438e+04 
       4.102780590524e-02       1.461527722051e+04 
       4.123283786613e-02       1.454051193862e+04 
       4.144019374966e-02       1.446583258510e+04 
       4.164997155611e-02       1.439118063033e+04 
       4.186227503070e-02       1.431646186322e+04 
       4.207721411140e-02       1.424185084165e+04 
       4.229490542074e-02       1.416713365990e+04 
       4.251547280671e-02       1.409243487927e+04 
       4.273904793881e-02       1.401768344373e+04 
       4.296577096579e-02       1.394298688862e+04 
       4.319579124319e-02       1.386813756982e+04 
       4.342926813921e-02       1.379506558639e+04 
       4.366637192936e-02       1.372019983759e+04 
       4.390728479165e-02       1.364518371247e+04 
       4.415220191594e-02       1.357016231635e+04 
       4.440133274326e-02       1.349494810770e+04 
       4.465490235347e-02       1.341963327884e+04 
       4.491315302283e-02       1.334420565607e+04 
       4.517634597636e-02       1.326862103562e+04 
       4.544476336463e-02       1.319283227184e+04 
       4.571871049946e-02       1.311691112461e+04 
       4.599851838954e-02       1.304149217306e+04 
       4.628454662445e-02       1.296512139656e+04 
       4.657718666477e-02       1.288842145124e+04 
       4.687686560706e-02       1.281143758866e+04 
       4.718405050644e-02       1.273417807342e+04 
       4.749925335576e-02       1.265651284132e+04 
       4.782303684161e-02       1.257851579864e+04 
       4.815602102227e-02       1.250003196975e+04 
       4.849889110512e-02       1.242110438101e+04 
       4.885240653994e-02       1.234305656121e+04 
       4.921741169442e-02       1.226308819361e+04 
       4.959484844051e-02       1.218245112152e+04 
       4.998577105846e-02       1.210111781119e+04 
       5.039136396541e-02       1.201908343803e+04 
       5.081296290155e-02       1.193613247329e+04 
       5.125208036798e-02       1.185229886226e+04 
       5.171043631553e-02       1.176802396804e+04 
       5.218999534564e-02       1.168195145338e+04 
       5.269301201641e-02       1.159458587500e+04 
       5.322208626700e-02       1.150571793142e+04 
       5.378023149711e-02       1.141521049371e+04 
       5.437095847824e-02       1.132278306342e+04 
       5.499837902536e-02       1.122922485915e+04 
       5.566733417972e-02       1.113203897912e+04 
       5.638355241613e-02       1.103183334158e+04 
       5.715384378416e-02       1.092804317656e+04 
       5.798633525433e-02       1.081994925395e+04 
       5.889074951543e-02       1.070709827541e+04 
       5.987872144796e-02       1.058731221231e+04 
       6.096412874284e-02       1.045944373773e+04 
