# dimensionless total lensed [l(l+1)/2pi] C_l's
# for l=2 to 2600, i.e. number of multipoles equal to 2599
#
# -> if you prefer output in CAMB/HealPix/LensPix units/order, set 'format' to 'camb' in input file
# -> if you don't want to see such a header, set 'headers' to 'no' in input file
# -> for CMB lensing (phi), these are C_l^phi-phi for the lensing potential.
#    Remember the conversion factors:
#    C_l^dd (deflection) = l(l+1) C_l^phi-phi
#    C_l^gg (shear/convergence) = 1/4 (l(l+1))^2 C_l^phi-phi
#
# 1:l     2:TT                     3:EE                     4:TE                     5:BB                     6:phiphi                 7:TPhi                   8:Ephi               
    2       1.470247318588e-10       7.112334280448e-15       4.703849187427e-13       2.192856566840e-19       8.429937207679e-09       4.807173130260e-10      -2.449729684399e-12 
    3       1.384810701892e-10       1.205865971145e-14       5.927384619190e-13       4.387111903641e-19       5.280039477815e-09       3.435519182917e-10      -2.156798502679e-12 
    4       1.300237013625e-10       1.407207895034e-14       6.122942190284e-13       7.314931855282e-19       3.682271918587e-09       2.612941576803e-10      -1.721853458397e-12 
    5       1.232870318665e-10       1.299436344220e-14       5.723097263834e-13       1.097809947525e-18       2.749772814938e-09       2.070011809216e-10      -1.278384309182e-12 
    6       1.183812144473e-10       9.996335633505e-15       5.021928962052e-13       1.537877456062e-18       2.147263995509e-09       1.686966569573e-10      -8.731638428755e-13 
    7       1.150340935600e-10       6.587929222895e-15       4.218840259001e-13       2.051945013282e-18       1.730217651681e-09       1.404270938727e-10      -5.304396389571e-13 
    8       1.127000399597e-10       3.852636334858e-15       3.435511459081e-13       2.640290263373e-18       1.427718073371e-09       1.188381967034e-10      -2.609774205371e-13 
    9       1.112222738748e-10       2.190268450571e-15       2.741144720015e-13       3.303213706257e-18       1.200905923700e-09       1.019446612230e-10      -6.642468195120e-14 
   10       1.106051373541e-10       1.449662133960e-15       2.177616443302e-13       4.041032840769e-18       1.026170103151e-09       8.854835116004e-11       5.838785322157e-14 
   11       1.105120955905e-10       1.235357087339e-15       1.763292057910e-13       4.854076082320e-18       8.650295995738e-10       7.796106536392e-11       1.226244486929e-13 
   12       1.107823752949e-10       1.184508319301e-15       1.491295418199e-13       5.742676606116e-18       7.559120477271e-10       6.903253864475e-11       1.408601238455e-13 
   13       1.113969309714e-10       1.103533766028e-15       1.347278938250e-13       6.707166269299e-18       6.661185219791e-10       6.159646079071e-11       1.263852416749e-13 
   14       1.122155975264e-10       9.639524961505e-16       1.308026715606e-13       7.747869763870e-18       5.914994752184e-10       5.522241194197e-11       9.187731470206e-14 
   15       1.131985383291e-10       8.234462959813e-16       1.340095368074e-13       8.865099146760e-18       5.286956079775e-10       4.990109560471e-11       4.964089819106e-14 
   16       1.144815346156e-10       7.410620851096e-16       1.415509849618e-13       1.005914888411e-17       4.753042967089e-10       4.541641248479e-11       8.390795740590e-15 
   17       1.158941511139e-10       7.319714068583e-16       1.510428720707e-13       1.133029153381e-17       4.295028643013e-10       4.155171353027e-11      -2.577857152296e-14 
   18       1.173460972037e-10       7.684409494612e-16       1.605076944271e-13       1.267877392053e-17       3.897222938801e-10       3.807433169346e-11      -4.955400747080e-14 
   19       1.188910434477e-10       8.193320506051e-16       1.690415560359e-13       1.410481566354e-17       3.553644941122e-10       3.497590585422e-11      -6.198792444001e-14 
   20       1.205522545309e-10       8.534048827624e-16       1.760493479548e-13       1.560860446557e-17       3.251501068294e-10       3.225049155487e-11      -6.371493790943e-14 
   21       1.223010441057e-10       8.736090154569e-16       1.816080588867e-13       1.719029944733e-17       2.985628696670e-10       2.986165769371e-11      -5.684659735507e-14 
   22       1.240686132625e-10       8.974675389178e-16       1.861247289542e-13       1.885002607939e-17       2.749047914542e-10       2.772120429640e-11      -4.476530450582e-14 
   23       1.258972420169e-10       9.445766733160e-16       1.900936017778e-13       2.058788311521e-17       2.538902173295e-10       2.578717793281e-11      -3.047679333222e-14 
   24       1.278316305029e-10       1.033785211895e-15       1.940860250730e-13       2.240393743677e-17       2.350989065796e-10       2.401214882380e-11      -1.713047767147e-14 
   25       1.298192150971e-10       1.164226736123e-15       1.984850701963e-13       2.429823570054e-17       2.182845909383e-10       2.239235292127e-11      -6.508916849763e-15 
   26       1.317748543657e-10       1.327406246957e-15       2.035951659342e-13       2.627079755464e-17       2.030924713731e-10       2.092415261134e-11       1.648710446390e-16 
   27       1.337451071361e-10       1.517709953651e-15       2.095143001589e-13       2.832162812336e-17       1.893462138748e-10       1.960577371470e-11       2.818396545778e-15 
   28       1.358007165662e-10       1.730170399617e-15       2.161921699017e-13       3.045071420638e-17       1.768314196437e-10       1.842464262173e-11       1.944956843837e-15 
   29       1.379369282014e-10       1.964236461806e-15       2.233067868441e-13       3.265804840214e-17       1.654868172514e-10       1.736557759941e-11      -1.693464030094e-15 
   30       1.401053059416e-10       2.220544204232e-15       2.303445723580e-13       3.494361114758e-17       1.551864560647e-10       1.639849349543e-11      -6.982884926080e-15 
   31       1.422493933312e-10       2.499131324015e-15       2.367197890032e-13       3.730737360624e-17       1.457160051687e-10       1.548585649573e-11      -1.259735892129e-14 
   32       1.443874018586e-10       2.797893067525e-15       2.420930505390e-13       3.974933441309e-17       1.370268920031e-10       1.462919169481e-11      -1.765078496840e-14 
   33       1.465585396666e-10       3.113452395667e-15       2.461630191487e-13       4.226949779547e-17       1.290596953438e-10       1.383856807698e-11      -2.126174704682e-14 
   34       1.487934227256e-10       3.442950802861e-15       2.486419339022e-13       4.486787341242e-17       1.217048335179e-10       1.311865896624e-11      -2.262661909340e-14 
   35       1.510875390306e-10       3.789113048868e-15       2.494672411070e-13       4.754450558443e-17       1.149241493257e-10       1.246387082736e-11      -2.189844292261e-14 
   36       1.534165721453e-10       4.157025114951e-15       2.486663630577e-13       5.029945685717e-17       1.086617823094e-10       1.186046521775e-11      -1.962769542337e-14 
   37       1.557521081989e-10       4.551913333688e-15       2.463059605306e-13       5.313280669528e-17       1.028347974434e-10       1.129219117744e-11      -1.646107880781e-14 
   38       1.580960836772e-10       4.975833393486e-15       2.424991565443e-13       5.604466755122e-17       9.742817322322e-11       1.075743159317e-11      -1.285612433763e-14 
   39       1.604564325441e-10       5.429928127131e-15       2.374057776059e-13       5.903517743213e-17       9.242529240114e-11       1.025709798754e-11      -9.287129353351e-15 
   40       1.628372740280e-10       5.915308210160e-15       2.312343216451e-13       6.210449827844e-17       8.777911084725e-11       9.789758854365e-12      -6.329593764364e-15 
   41       1.652401375771e-10       6.432881821154e-15       2.241822544433e-13       6.525281402529e-17       8.342858803502e-11       9.352474676531e-12      -4.516768070774e-15 
   42       1.676692263679e-10       6.982788081256e-15       2.162262429230e-13       6.848031897580e-17       7.936079844164e-11       8.944158345950e-12      -3.838188314058e-15 
   43       1.701270907222e-10       7.564771373626e-15       2.072687337078e-13       7.178722918031e-17       7.556456742392e-11       8.562938673960e-12      -4.088361600496e-15 
   44       1.726127505598e-10       8.178315389074e-15       1.971935312949e-13       7.517378794066e-17       7.201180864003e-11       8.205055340887e-12      -4.998347488163e-15 
   45       1.751232935758e-10       8.822885616894e-15       1.858714000688e-13       7.864024912557e-17       6.866750244885e-11       7.866110595454e-12      -6.268857179248e-15 
   46       1.776600551577e-10       9.498781020819e-15       1.731819174949e-13       8.218681686859e-17       6.552635689195e-11       7.545617790692e-12      -7.690997965832e-15 
   47       1.802236972617e-10       1.020650972787e-14       1.589959525324e-13       8.581369094631e-17       6.258481977666e-11       7.243562055544e-12      -9.054663076755e-15 
   48       1.828121964497e-10       1.094655151729e-14       1.431684626801e-13       8.952108446173e-17       5.983003277635e-11       6.959054281853e-12      -1.011257158697e-14 
   49       1.854206097468e-10       1.171935668727e-14       1.255375968526e-13       9.330922460312e-17       5.723913898561e-11       6.690264359625e-12      -1.057831669842e-14 
   50       1.880434705536e-10       1.252530294338e-14       1.059687247802e-13       9.717832650809e-17       5.478617582541e-11       6.435038957224e-12      -1.021739803783e-14 
   51       1.906832862865e-10       1.336455489726e-14       8.450269594554e-14       1.011285047319e-16       5.246656596003e-11       6.193107445766e-12      -9.153976873821e-15 
   52       1.933439425959e-10       1.423716447157e-14       6.124627312607e-14       1.051598390598e-16       5.027807722942e-11       5.964359341038e-12      -7.644012469720e-15 
   53       1.960281671512e-10       1.514310651006e-14       3.633191134715e-14       1.092723988071e-16       4.821349079220e-11       5.748178360626e-12      -5.991922001428e-15 
   54       1.987374192657e-10       1.608227566892e-14       9.918974947688e-15       1.134662423115e-16       4.626026563853e-11       5.543407873068e-12      -4.553004556721e-15 
   55       2.014723882854e-10       1.705456843979e-14      -1.784615975917e-14       1.177413992964e-16       4.440435950393e-11       5.348712741277e-12      -3.649453504391e-15 
   56       2.042348866024e-10       1.806016020178e-14      -4.696419118856e-14       1.220978139862e-16       4.264357171998e-11       5.163849269214e-12      -3.288407674257e-15 
   57       2.070262335754e-10       1.909929154996e-14      -7.747998401124e-14       1.265353869720e-16       4.097692738209e-11       4.988650218702e-12      -3.378103862555e-15 
   58       2.098466031957e-10       2.017218939737e-14      -1.094447495889e-13       1.310539899551e-16       3.940064158587e-11       4.822637364715e-12      -3.807229626681e-15 
   59       2.126949374299e-10       2.127906718309e-14      -1.429164307690e-13       1.356534645735e-16       3.790794587770e-11       4.665002388454e-12      -4.443980597631e-15 
   60       2.155688595628e-10       2.242012508034e-14      -1.779600866787e-13       1.403336212269e-16       3.648891470527e-11       4.514587770435e-12      -5.135117792419e-15 
   61       2.184658636535e-10       2.359546455291e-14      -2.146356846109e-13       1.450942558965e-16       3.513322096820e-11       4.370207630025e-12      -5.738281726458e-15 
   62       2.213873909404e-10       2.480480914196e-14      -2.529574030323e-13       1.499352076709e-16       3.383951805741e-11       4.231737624185e-12      -6.229543220903e-15 
   63       2.243355188181e-10       2.604772109091e-14      -2.929258349508e-13       1.548563121073e-16       3.260786533250e-11       4.099236895981e-12      -6.618430577503e-15 
   64       2.273117202116e-10       2.732367900695e-14      -3.345397602688e-13       1.598573837859e-16       3.143690583560e-11       3.972621559716e-12      -6.916913317304e-15 
   65       2.303168174087e-10       2.863207535158e-14      -3.777961310149e-13       1.649382157072e-16       3.032378568005e-11       3.851656380254e-12      -7.139514706191e-15 
   66       2.333509358930e-10       2.997221393099e-14      -4.226900565742e-13       1.700985786880e-16       2.926407343907e-11       3.735946452344e-12      -7.303424280427e-15 
   67       2.364134581765e-10       3.134330738654e-14      -4.692147889199e-13       1.753382207582e-16       2.825167953448e-11       3.624928879947e-12      -7.428610372198e-15 
   68       2.395036512218e-10       3.274457476628e-14      -5.173617238230e-13       1.806569217800e-16       2.728048115003e-11       3.518035373839e-12      -7.534430448364e-15 
   69       2.426227995334e-10       3.417556280715e-14      -5.671204377797e-13       1.860546715038e-16       2.634975949417e-11       3.415236901819e-12      -7.628413031687e-15 
   70       2.457724233357e-10       3.563588554383e-14      -6.184786320693e-13       1.915315266730e-16       2.545972451832e-11       3.316594958418e-12      -7.715394403326e-15 
   71       2.489536148058e-10       3.712513003692e-14      -6.714221033344e-13       1.970875597885e-16       2.460987054431e-11       3.222096532714e-12      -7.800842212685e-15 
   72       2.521670091335e-10       3.864285642301e-14      -7.259347292207e-13       2.027228599176e-16       2.379893927273e-11       3.131650158968e-12      -7.890878432954e-15 
   73       2.554127555814e-10       4.018859796473e-14      -7.819984540166e-13       2.084375335030e-16       2.302488279108e-11       3.045081967262e-12      -7.992302316661e-15 
   74       2.586904885450e-10       4.176186110082e-14      -8.395932742932e-13       2.142317051722e-16       2.228482658205e-11       2.962131734139e-12      -8.112613351215e-15 
   75       2.619992986127e-10       4.336212549623e-14      -8.986972245436e-13       2.201055185460e-16       2.157503253174e-11       2.882448933235e-12      -8.260034214453e-15 
   76       2.653382101059e-10       4.498872046193e-14      -9.592836637806e-13       2.260591564309e-16       2.089182666325e-11       2.805683008085e-12      -8.440749451229e-15 
   77       2.687077782041e-10       4.664042808685e-14      -1.021312595830e-12       2.320929038578e-16       2.023465942096e-11       2.731781925506e-12      -8.649989428092e-15 
   78       2.721087318386e-10       4.831580748988e-14      -1.084737732806e-12       2.382070980623e-16       1.960353883001e-11       2.660741142606e-12      -8.879354646474e-15 
   79       2.755414747959e-10       5.001330958495e-14      -1.149508985164e-12       2.444021113076e-16       1.899809834762e-11       2.592512229821e-12      -9.119422196990e-15 
   80       2.790060671638e-10       5.173127459592e-14      -1.215572391989e-12       2.506783520914e-16       1.841757965372e-11       2.527000853647e-12      -9.359711621096e-15 
   81       2.825022067773e-10       5.346792957156e-14      -1.282870051292e-12       2.570362663523e-16       1.786081544173e-11       2.464064759386e-12      -9.588650772738e-15 
   82       2.860292106645e-10       5.522138590047e-14      -1.351340050303e-12       2.634763386763e-16       1.732621220925e-11       2.403511753882e-12      -9.793541680001e-15 
   83       2.895859964926e-10       5.698963682598e-14      -1.420916395764e-12       2.699990935030e-16       1.681173304877e-11       2.345097688259e-12      -9.960526406765e-15 
   84       2.931715301062e-10       5.877076137763e-14      -1.491537431007e-12       2.766050375647e-16       1.631539241077e-11       2.288585580986e-12      -1.007747353713e-14 
   85       2.967862940314e-10       6.056358045299e-14      -1.563172843110e-12       2.832944735943e-16       1.583687233011e-11       2.233938667355e-12      -1.014326221452e-14 
   86       3.004310295329e-10       6.236710544975e-14      -1.635801025969e-12       2.900676578027e-16       1.537614382912e-11       2.181155803768e-12      -1.015998176465e-14 
   87       3.041062816033e-10       6.418034248921e-14      -1.709401063444e-12       2.969248561157e-16       1.493297028994e-11       2.130212197790e-12      -1.013016264349e-14 
   88       3.078123882428e-10       6.600229340043e-14      -1.783952802291e-12       3.038663443934e-16       1.450689884979e-11       2.081058418453e-12      -1.005679138496e-14 
   89       3.115494697386e-10       6.783195670433e-14      -1.859436925085e-12       3.108924086485e-16       1.409725179627e-11       2.033619406568e-12      -9.943325548738e-15 
   90       3.153174179442e-10       6.966832859782e-14      -1.935835023154e-12       3.180033452652e-16       1.370311796263e-11       1.987793485029e-12      -9.793708667989e-15 
   91       3.191158855588e-10       7.151040393790e-14      -2.013129669504e-12       3.251994612181e-16       1.332334412311e-11       1.943451369124e-12      -9.612385197092e-15 
   92       3.229442754068e-10       7.335717722578e-14      -2.091304491750e-12       3.324810742910e-16       1.295652638816e-11       1.900435176838e-12      -9.404315459411e-15 
   93       3.268019884652e-10       7.520754950068e-14      -2.170336249706e-12       3.398484981782e-16       1.260134307765e-11       1.858597981735e-12      -9.174539381593e-15 
   94       3.306892339035e-10       7.706003086531e-14      -2.250169546752e-12       3.473019947510e-16       1.225762929856e-11       1.817931426025e-12      -8.926760172877e-15 
   95       3.346063216199e-10       7.891299483155e-14      -2.330738432197e-12       3.548418149835e-16       1.192544882661e-11       1.778455559976e-12      -8.664574276774e-15 
   96       3.385534072747e-10       8.076476812103e-14      -2.411974021394e-12       3.624682134409e-16       1.160476316394e-11       1.740179582110e-12      -8.391912241184e-15 
   97       3.425304851225e-10       8.261363035766e-14      -2.493804458919e-12       3.701814482909e-16       1.129542762180e-11       1.703101406035e-12      -8.113047472413e-15 
   98       3.465373808426e-10       8.445781376022e-14      -2.576154881748e-12       3.779817813150e-16       1.099718740325e-11       1.667207227275e-12      -7.832604989183e-15 
   99       3.505737443705e-10       8.629550283487e-14      -2.658947382438e-12       3.858694779197e-16       1.070967368588e-11       1.632471090095e-12      -7.555570176656e-15 
  100       3.546390427291e-10       8.812483406776e-14      -2.742100972302e-12       3.938448071479e-16       1.043239970451e-11       1.598854454333e-12      -7.287297540442e-15 
  101       3.587325528599e-10       8.994389561753e-14      -2.825531544587e-12       4.019080416899e-16       1.016475683385e-11       1.566305762227e-12      -7.033519460616e-15 
  102       3.628533544539e-10       9.175072700792e-14      -2.909151837653e-12       4.100594578948e-16       9.906010671265e-12       1.534760005246e-12      -6.800354945737e-15 
  103       3.670003227832e-10       9.354331882025e-14      -2.992871398150e-12       4.182993357820e-16       9.655297119422e-12       1.504138290917e-12      -6.594318386860e-15 
  104       3.711723743454e-10       9.531970887889e-14      -3.076602959495e-12       4.266280290353e-16       9.411818183774e-12       1.474365933423e-12      -6.420798177303e-15 
  105       3.753692570297e-10       9.707828626732e-14      -3.160282637905e-12       4.350461857305e-16       9.175467924881e-12       1.445430441552e-12      -6.279239658642e-15 
  106       3.795908538230e-10       9.881752799817e-14      -3.243852408609e-12       4.435545575851e-16       8.946284153793e-12       1.417330592986e-12      -6.167324751661e-15 
  107       3.838369351905e-10       1.005359069316e-13      -3.327253967440e-12       4.521539334082e-16       8.724254566260e-12       1.390058383194e-12      -6.082436019365e-15 
