# Matter power spectrum P(k) at redshift z=3
# for k=1.04405e-05 to 1.48025 h/Mpc,
# number of wavenumbers equal to 610
#    1:k (h/Mpc)              2:P (Mpc/h)^3        
       1.044048832877e-05       4.996547730876e+00 
       2.351709790161e-05       1.095966593374e+01 
       3.664063585956e-05       1.682956602874e+01 
       4.984749426090e-05       2.266588818661e+01 
       6.317468115101e-05       2.850332817959e+01 
       7.666016061321e-05       3.436841123437e+01 
       9.034320395317e-05       4.028418332271e+01 
       1.042647568211e-04       4.627214209238e+01 
       1.184678271117e-04       5.235323768977e+01 
       1.329978985174e-04       5.854848956576e+01 
       1.479033746082e-04       6.487942459449e+01 
       1.632360582355e-04       7.136842661382e+01 
       1.790516708305e-04       7.803904165098e+01 
       1.954104157157e-04       8.491626245162e+01 
       2.123775887467e-04       9.202680555625e+01 
       2.300242382931e-04       9.939938829204e+01 
       2.484278745541e-04       1.070650091649e+02 
       2.676732252116e-04       1.150588209989e+02 
       2.878530301363e-04       1.234141431842e+02 
       3.090688618733e-04       1.321720240822e+02 
       3.314319505088e-04       1.413754050098e+02 
       3.550639807790e-04       1.510708599964e+02 
       3.800978155281e-04       1.613087814536e+02 
       4.066780826154e-04       1.721434875743e+02 
       4.349615422799e-04       1.836332155637e+02 
       4.651171296474e-04       1.958399562967e+02 
       4.973255444672e-04       2.088290779925e+02 
       5.317782407749e-04       2.226700768808e+02 
       5.686756584387e-04       2.374287157904e+02 
       6.082245439053e-04       2.531789703379e+02 
       6.506342378843e-04       2.699600100021e+02 
       6.961118720241e-04       2.879090086985e+02 
       7.448565206195e-04       3.070260543536e+02 
       7.970524955720e-04       3.273756337841e+02 
       8.528621401192e-04       3.489907288100e+02 
       9.124186420857e-04       3.718949552880e+02 
       9.758195114338e-04       3.961128869550e+02 
       1.043121407219e-03       4.216299603436e+02 
       1.114336924211e-03       4.484019618774e+02 
       1.189433754120e-03       4.763668969616e+02 
       1.268336349885e-03       5.054980601814e+02 
       1.350929902825e-03       5.356816417318e+02 
       1.437066162617e-03       5.668425605109e+02 
       1.480253419385e-03       5.823362295410e+02 
       1.526570447657e-03       5.988520795182e+02 
       1.619249136485e-03       6.316295797516e+02 
       1.714896991729e-03       6.650645834754e+02 
       1.813303811512e-03       6.990409713528e+02 
       1.914260083593e-03       7.334426822921e+02 
       2.017561493404e-03       7.682005312818e+02 
       2.123012281190e-03       8.031964786874e+02 
       2.230427543671e-03       8.383325801171e+02 
       2.339634632747e-03       8.735347213855e+02 
       2.450473825510e-03       9.087653629695e+02 
       2.562798436887e-03       9.439060927443e+02 
       2.676474528426e-03       9.789527261703e+02 
       2.791380342074e-03       1.013836166172e+03 
       2.907405561654e-03       1.048488338773e+03 
       3.024450480363e-03       1.082888507732e+03 
       3.142425131584e-03       1.117022216909e+03 
       3.261248423196e-03       1.150827070294e+03 
       3.380847302158e-03       1.184280376895e+03 
       3.501155966069e-03       1.217378822953e+03 
       3.622115131021e-03       1.250097615258e+03 
       3.743671359860e-03       1.282402390190e+03 
       3.865776451432e-03       1.314314883575e+03 
       3.988386889040e-03       1.345800929164e+03 
       4.111463344921e-03       1.376850970875e+03 
       4.234970236752e-03       1.407470055227e+03 
       4.358875331831e-03       1.437635910716e+03 
       4.483149394502e-03       1.467351748991e+03 
       4.607765872527e-03       1.496613788421e+03 
       4.732700618319e-03       1.525418489036e+03 
       4.857931641261e-03       1.553814337165e+03 
       4.983438887649e-03       1.581211857434e+03 
       5.109204045145e-03       1.610244405288e+03 
       5.235210368912e-03       1.635975613292e+03 
       5.361442526939e-03       1.663125792011e+03 
       5.487886462326e-03       1.687401038370e+03 
       5.614529270556e-03       1.715968711153e+03 
       5.741359090013e-03       1.739677642916e+03 
       5.868365004212e-03       1.765191640697e+03 
       5.995536954387e-03       1.787733610514e+03 
       6.122865661245e-03       1.810249488428e+03 
       6.250342554844e-03       1.836504354340e+03 
       6.377959711666e-03       1.858247455755e+03 
       6.505709798085e-03       1.881736668563e+03 
       6.633586019506e-03       1.902484279563e+03 
       6.761582074554e-03       1.926853341663e+03 
       6.889692113756e-03       1.946995446979e+03 
       7.017910702233e-03       1.966719555524e+03 
       7.146232785962e-03       1.987890248988e+03 
       7.274653661236e-03       2.007004714266e+03 
       7.403168946981e-03       2.025736294600e+03 
       7.531774559636e-03       2.047148885209e+03 
       7.660466690327e-03       2.065181617479e+03 
       7.789241784104e-03       2.082894678929e+03 
       7.918096521027e-03       2.101471376241e+03 
       8.047027798936e-03       2.118649382657e+03 
       8.176032717703e-03       2.135319997879e+03 
       8.305108564862e-03       2.153710229397e+03 
       8.434252802456e-03       2.169732463076e+03 
       8.563463054990e-03       2.185359706940e+03 
       8.692737098397e-03       2.201607513708e+03 
       8.822072849913e-03       2.216697559832e+03 
       8.951468358771e-03       2.231320481682e+03 
       9.080921797661e-03       2.247147014564e+03 
       9.210431454859e-03       2.261146371721e+03 
       9.339995726989e-03       2.274846638584e+03 
       9.469613112347e-03       2.288211023370e+03 
       9.599282204748e-03       2.301848581874e+03 
       9.729001687843e-03       2.314591950657e+03 
       9.858770329871e-03       2.327012660556e+03 
       9.988586978806e-03       2.340123021620e+03 
       1.011845055787e-02       2.351904437843e+03 
       1.024836006139e-02       2.363407220989e+03 
       1.037831455091e-02       2.374590126625e+03 
       1.050831315170e-02       2.385904467444e+03 
       1.063835504936e-02       2.396442281792e+03 
       1.076843948682e-02       2.406753502565e+03 
       1.089856576148e-02       2.416744431142e+03 
       1.102873322254e-02       2.427155540677e+03 
       1.115894126856e-02       2.436585069172e+03 
       1.128918934519e-02       2.445736630038e+03 
       1.141947694305e-02       2.454612480761e+03 
       1.154980359573e-02       2.463207322260e+03 
       1.168016887799e-02       2.471769623995e+03 
       1.181057240404e-02       2.479819829139e+03 
       1.194101382595e-02       2.487606235536e+03 
       1.207149283220e-02       2.495136963019e+03 
       1.220200914628e-02       2.502841982019e+03 
       1.233256252544e-02       2.509835846573e+03 
       1.246315275949e-02       2.516570603335e+03 
       1.259377966972e-02       2.523065374377e+03 
       1.272444310785e-02       2.529307534140e+03 
       1.285514295512e-02       2.535480888539e+03 
       1.298587912136e-02       2.541226326929e+03 
       1.311665154425e-02       2.546744026637e+03 
       1.324746018849e-02       2.552024087885e+03 
       1.337830504514e-02       2.557043431287e+03 
       1.350918613100e-02       2.562151693068e+03 
       1.364010348798e-02       2.566735472711e+03 
       1.377105718257e-02       2.571086047008e+03 
       1.390204730535e-02       2.575206323257e+03 
       1.403307397051e-02       2.579117307385e+03 
       1.416413731546e-02       2.582919573626e+03 
       1.429523750045e-02       2.586383729147e+03 
       1.442637470821e-02       2.589648738803e+03 
       1.455754914367e-02       2.592689598785e+03 
       1.468876103365e-02       2.595536539486e+03 
       1.480253419385e-02       2.597843130399e+03 
       1.482001062666e-02       2.598181739866e+03 
       1.495129819265e-02       2.600798438629e+03 
       1.508262402286e-02       2.603032607398e+03 
       1.521398842964e-02       2.605077638501e+03 
       1.534539174632e-02       2.606915839886e+03 
       1.547683432712e-02       2.608576177684e+03 
       1.560831654706e-02       2.610038449848e+03 
       1.573983880191e-02       2.611387611095e+03 
       1.587140150815e-02       2.612485777953e+03 
       1.600300510295e-02       2.613390374312e+03 
       1.613465004420e-02       2.614129971769e+03 
       1.626633681054e-02       2.614683910634e+03 
       1.639806590136e-02       2.615058597848e+03 
       1.652983783695e-02       2.615387463260e+03 
       1.666165315852e-02       2.615419340104e+03 
       1.679351242835e-02       2.615288403046e+03 
       1.692541622988e-02       2.614986195738e+03 
       1.705736516791e-02       2.614529232458e+03 
       1.718935986869e-02       2.613905416008e+03 
       1.732140098015e-02       2.613170131027e+03 
       1.745348917208e-02       2.612236665203e+03 
       1.758562513636e-02       2.611141188749e+03 
       1.771780958714e-02       2.609898117518e+03 
       1.785004326117e-02       2.608501498490e+03 
       1.798232691798e-02       2.606961877413e+03 
       1.811466134021e-02       2.605269964085e+03 
       1.824704733390e-02       2.603514213329e+03 
       1.837948572882e-02       2.601538934146e+03 
       1.851197737873e-02       2.599427798287e+03 
       1.864452316184e-02       2.597175167781e+03 
       1.877712398107e-02       2.594792654052e+03 
       1.890978076450e-02       2.592271552371e+03 
       1.904249446574e-02       2.589624157353e+03 
       1.917526606434e-02       2.586843821000e+03 
       1.930809656626e-02       2.583967341000e+03 
       1.944098700426e-02       2.580935305628e+03 
       1.957393843843e-02       2.577783714095e+03 
       1.970695195664e-02       2.574506973502e+03 
       1.984002867507e-02       2.571115460863e+03 
       1.997316973871e-02       2.567601453445e+03 
       2.010637632192e-02       2.563977591135e+03 
       2.023964962896e-02       2.560280774396e+03 
       2.037299089464e-02       2.556429470611e+03 
       2.050640138485e-02       2.552469149532e+03 
       2.063988239721e-02       2.548399236521e+03 
       2.077343526173e-02       2.544226434275e+03 
       2.090706134145e-02       2.539947759652e+03 
       2.104076203315e-02       2.535567441228e+03 
       2.117453876803e-02       2.531086370180e+03 
       2.130839301247e-02       2.526508358411e+03 
       2.144232626875e-02       2.521849233656e+03 
       2.157634007588e-02       2.517079878753e+03 
       2.171043601037e-02       2.512215805852e+03 
       2.184461568706e-02       2.507261257568e+03 
       2.197888075999e-02       2.502217458643e+03 
       2.211323292328e-02       2.497084964196e+03 
       2.224767391201e-02       2.491866908262e+03 
       2.238220550324e-02       2.486564097386e+03 
       2.251682951688e-02       2.481204637819e+03 
       2.265154781675e-02       2.475737738436e+03 
       2.278636231160e-02       2.470190549430e+03 
       2.292127495616e-02       2.464567157472e+03 
       2.305628775224e-02       2.458865659323e+03 
       2.319140274987e-02       2.453091027004e+03 
       2.332662204845e-02       2.447241855020e+03 
       2.346194779796e-02       2.441321687227e+03 
       2.359738220020e-02       2.435332527618e+03 
       2.373292751006e-02       2.429282503004e+03 
       2.386858603686e-02       2.423157077291e+03 
       2.400436014565e-02       2.416965148139e+03 
       2.414025225871e-02       2.410709788025e+03 
       2.427626485691e-02       2.404391790752e+03 
       2.441240048124e-02       2.398012208869e+03 
       2.454866173435e-02       2.391572638129e+03 
       2.468505128215e-02       2.385075906607e+03 
       2.482157185543e-02       2.378521195959e+03 
       2.495822625156e-02       2.371913022319e+03 
       2.509501733627e-02       2.365263063338e+03 
       2.523194804541e-02       2.358546166481e+03 
       2.536902138686e-02       2.351777650081e+03 
       2.550624044243e-02       2.344958867413e+03 
       2.564360836986e-02       2.338091010677e+03 
       2.578112840489e-02       2.331176730512e+03 
       2.591880386337e-02       2.324214700126e+03 
       2.605663814347e-02       2.317209576857e+03 
       2.619463472796e-02       2.310159243080e+03 
       2.633279718656e-02       2.303066560488e+03 
       2.647112917834e-02       2.295938926268e+03 
       2.660963445429e-02       2.288764737622e+03 
       2.674831685988e-02       2.281552548611e+03 
       2.688718033776e-02       2.274302030174e+03 
       2.702622893059e-02       2.267015247223e+03 
       2.716546678387e-02       2.259692998170e+03 
       2.730489814895e-02       2.252337112889e+03 
       2.744452738615e-02       2.244947181785e+03 
       2.758435896794e-02       2.237525968953e+03 
       2.772439748228e-02       2.230073989201e+03 
       2.786464763605e-02       2.222599515268e+03 
       2.800511425866e-02       2.215089066330e+03 
       2.814580230571e-02       2.207550252316e+03 
       2.828671686286e-02       2.199984969790e+03 
       2.842786314981e-02       2.192393938184e+03 
       2.856924652445e-02       2.184778587443e+03 
       2.871087248716e-02       2.177139268522e+03 
       2.885274668524e-02       2.169477492810e+03 
       2.899487491758e-02       2.161793604266e+03 
       2.913726313949e-02       2.154088706479e+03 
       2.927991746764e-02       2.146364094992e+03 
       2.942284418534e-02       2.138623046641e+03 
       2.956604974790e-02       2.130861152582e+03 
       2.970954078830e-02       2.123081810165e+03 
       2.985332412301e-02       2.115286492424e+03 
       2.999740675810e-02       2.107475142206e+03 
       3.014179589563e-02       2.099648976816e+03 
       3.028649894020e-02       2.091809063591e+03 
       3.043152350589e-02       2.083955677391e+03 
       3.057687742342e-02       2.076090098544e+03 
       3.072256874765e-02       2.068212934944e+03 
       3.086860576539e-02       2.060324571815e+03 
       3.101499700355e-02       2.052426391825e+03 
       3.116175123764e-02       2.044522271857e+03 
       3.130887750069e-02       2.036605686290e+03 
       3.145638509247e-02       2.028680822952e+03 
       3.160428358923e-02       2.020748802557e+03 
       3.175258285383e-02       2.012809814515e+03 
       3.190129304635e-02       2.004864605315e+03 
       3.205042463513e-02       1.996914123603e+03 
       3.219998840847e-02       1.988958554585e+03 
       3.234999548667e-02       1.980998659694e+03 
       3.250045733488e-02       1.973035226947e+03 
       3.265138577635e-02       1.965068345020e+03 
       3.280279300647e-02       1.957100183378e+03 
       3.295469160742e-02       1.949128380577e+03 
       3.310709456359e-02       1.941155308475e+03 
       3.326001527772e-02       1.933180927963e+03 
       3.341346758790e-02       1.925205923659e+03 
       3.356746578541e-02       1.917230827524e+03 
       3.372202463348e-02       1.909255827791e+03 
       3.387715938701e-02       1.901281546806e+03 
       3.403288581340e-02       1.893308476845e+03 
       3.418922021433e-02       1.885336664341e+03 
       3.434617944890e-02       1.877366782915e+03 
       3.450378095785e-02       1.869398905532e+03 
       3.466204278924e-02       1.861435500734e+03 
       3.482098362544e-02       1.853473140448e+03 
       3.498062281173e-02       1.845513982451e+03 
       3.514098038643e-02       1.837558314336e+03 
       3.530207711282e-02       1.829606292214e+03 
       3.546393451287e-02       1.821658234110e+03 
       3.562657490296e-02       1.813714462301e+03 
       3.579002143170e-02       1.805775031310e+03 
       3.595429812002e-02       1.797840233167e+03 
       3.611942990371e-02       1.789910223523e+03 
       3.628544267853e-02       1.781985132011e+03 
       3.645236334815e-02       1.774065189228e+03 
       3.662021987511e-02       1.766150441407e+03 
       3.678904133494e-02       1.758241583472e+03 
       3.695885797391e-02       1.750337582980e+03 
       3.712970127038e-02       1.742439026742e+03 
       3.730160400035e-02       1.734546024312e+03 
       3.747460030730e-02       1.726658583442e+03 
       3.764872577676e-02       1.718776646930e+03 
       3.782401751608e-02       1.710900271366e+03 
       3.800051423968e-02       1.703029313234e+03 
       3.817825636032e-02       1.695163761199e+03 
       3.835728608694e-02       1.687303440973e+03 
       3.853764752951e-02       1.679448405301e+03 
       3.871938681169e-02       1.671598355486e+03 
       3.890255219183e-02       1.663753690118e+03 
       3.908719419310e-02       1.655913233308e+03 
       3.927336574368e-02       1.648077177151e+03 
       3.946112232782e-02       1.640245378908e+03 
       3.965052214884e-02       1.632417454116e+03 
       3.984162630524e-02       1.624593136613e+03 
       4.003449898119e-02       1.616772094717e+03 
       4.022920765269e-02       1.608953986966e+03 
       4.042582331123e-02       1.601138333154e+03 
       4.062442070642e-02       1.593324693532e+03 
       4.082507860980e-02       1.585512659229e+03 
       4.102788010190e-02       1.577701708631e+03 
       4.123291288515e-02       1.569891176036e+03 
       4.144026962528e-02       1.562080530926e+03 
       4.165004832459e-02       1.554269120613e+03 
       4.186235273043e-02       1.546456269003e+03 
       4.207729278308e-02       1.538641201583e+03 
       4.229498510757e-02       1.530823139706e+03 
       4.251555355460e-02       1.523001249753e+03 
       4.273912979656e-02       1.515174603254e+03 
       4.296585398542e-02       1.507342221945e+03 
       4.319587548015e-02       1.499503066785e+03 
       4.342935365269e-02       1.491655919777e+03 
       4.366645878265e-02       1.483799814257e+03 
       4.390737305253e-02       1.475933360036e+03 
       4.415229165706e-02       1.468055171822e+03 
       4.440142404262e-02       1.460163809443e+03 
       4.465499529498e-02       1.452257726082e+03 
       4.491324769688e-02       1.444335224420e+03 
       4.517644248048e-02       1.436394491252e+03 
       4.544486180426e-02       1.428433631958e+03 
       4.571881098880e-02       1.420450525883e+03 
       4.599862105252e-02       1.412442846094e+03 
       4.628465159583e-02       1.404408364359e+03 
       4.657729409139e-02       1.396344390657e+03 
       4.687697564934e-02       1.388248053284e+03 
       4.718416333999e-02       1.380116241094e+03 
       4.749936917332e-02       1.371945619536e+03 
       4.782315585526e-02       1.363732468702e+03 
       4.815614346605e-02       1.355472804194e+03 
       4.849901723801e-02       1.347162135632e+03 
       4.885253664940e-02       1.338795208228e+03 
       4.921754610058e-02       1.330367314358e+03 
       4.959498750102e-02       1.321872049170e+03 
       4.998591517435e-02       1.313302626135e+03 
       5.039151358805e-02       1.304651395041e+03 
       5.081311854096e-02       1.295909793918e+03 
       5.125224260282e-02       1.287067920261e+03 
       5.171060580524e-02       1.278114318338e+03 
       5.219017284513e-02       1.269036390101e+03 
       5.269319839403e-02       1.259818632394e+03 
       5.322228252653e-02       1.250443162749e+03 
       5.378043880486e-02       1.240888622574e+03 
       5.437117819646e-02       1.231129411343e+03 
       5.499861275359e-02       1.221133935345e+03 
       5.566758380585e-02       1.210864680085e+03 
       5.638382017932e-02       1.200273303031e+03 
       5.715413235172e-02       1.189299207480e+03 
       5.798664781405e-02       1.177864616766e+03 
       5.889108988321e-02       1.165868178716e+03 
       5.987909418619e-02       1.153177068111e+03 
       6.096453927617e-02       1.139613579744e+03 
