# Matter power spectrum P(k) at redshift z=3
# for k=1.04358e-05 to 1.48025 h/Mpc,
# number of wavenumbers equal to 610
#    1:k (h/Mpc)              2:P (Mpc/h)^3        
       1.043580880200e-05       4.993568416444e+00 
       2.351240772590e-05       1.095576517268e+01 
       3.663592206814e-05       1.682472083935e+01 
       4.984274372373e-05       2.266007931735e+01 
       6.316988045435e-05       2.849653164166e+01 
       7.665529593602e-05       3.436059658568e+01 
       9.033826093860e-05       4.027531281645e+01 
       1.042597204413e-04       4.626216990629e+01 
       1.184626815246e-04       5.234210904573e+01 
       1.329926269127e-04       5.853613966460e+01 
       1.478979590422e-04       6.486577731528e+01 
       1.632304794522e-04       7.135339292788e+01 
       1.790459080669e-04       7.802251769304e+01 
       1.954044464919e-04       8.489812717770e+01 
       2.123713886372e-04       9.200691790186e+01 
       2.300177806812e-04       9.937758372305e+01 
       2.484211303680e-04       1.070410954881e+02 
       2.676661626454e-04       1.150309842994e+02 
       2.878456143587e-04       1.233836257323e+02 
       3.090610547303e-04       1.321385189933e+02 
       3.314237102296e-04       1.413385510127e+02 
       3.550552616990e-04       1.510302305707e+02 
       3.800885678487e-04       1.612638715897e+02 
       4.066682522263e-04       1.720936976500e+02 
       4.349510706772e-04       1.835778317472e+02 
       4.651059539903e-04       1.957781268038e+02 
       4.973135978220e-04       2.087597844553e+02 
       5.317654526035e-04       2.225883398357e+02 
       5.686619553862e-04       2.373420575092e+02 
       6.082098509410e-04       2.530818386121e+02 
       6.506184798276e-04       2.698776850177e+02 
       6.960949754627e-04       2.877947633165e+02 
       7.448384161787e-04       3.069045584880e+02 
       7.970331204388e-04       3.272879615033e+02 
       8.528414406627e-04       3.488858141157e+02 
       9.123965763615e-04       3.718887583065e+02 
       9.757960513266e-04       3.961493831813e+02 
       1.043096539984e-03       4.216173319545e+02 
       1.114310653222e-03       4.483863352336e+02 
       1.189406098726e-03       4.763701603243e+02 
       1.268307344378e-03       5.054484833337e+02 
       1.350899594650e-03       5.355923442947e+02 
       1.437034610032e-03       5.666894581151e+02 
       1.480253419385e-03       5.821588591968e+02 
       1.526537717089e-03       5.986270988482e+02 
       1.619215299834e-03       6.313061790696e+02 
       1.714862123835e-03       6.646515095536e+02 
       1.813267987933e-03       6.985046165199e+02 
       1.914223378774e-03       7.328110677273e+02 
       2.017523979267e-03       7.674039061240e+02 
       2.122974026127e-03       8.022278466323e+02 
       2.230388611885e-03       8.372111718647e+02 
       2.339595083891e-03       8.722494732112e+02 
       2.450433714555e-03       9.072820351457e+02 
       2.562757814163e-03       9.422342519935e+02 
       2.676433439778e-03       9.770455692703e+02 
       2.791338829103e-03       1.011682824707e+03 
       2.907363662003e-03       1.046106534812e+03 
       3.024408228024e-03       1.080258902961e+03 
       3.142382557210e-03       1.114101053265e+03 
       3.261205554408e-03       1.147632969618e+03 
       3.380804163836e-03       1.180803868198e+03 
       3.501112580629e-03       1.213603028300e+03 
       3.622071518659e-03       1.246000284857e+03 
       3.743627538789e-03       1.277995806432e+03 
       3.865732438089e-03       1.309563524423e+03 
       3.988342698271e-03       1.340703914684e+03 
       4.111418990151e-03       1.371402780763e+03 
       4.234925730137e-03       1.401647093155e+03 
       4.358830684387e-03       1.431435995558e+03 
       4.483104616230e-03       1.460768508706e+03 
       4.607720972517e-03       1.489734292558e+03 
       4.732655604842e-03       1.518020679881e+03 
       4.857886521855e-03       1.545121296702e+03 
       4.983393669194e-03       1.580835892433e+03 
       5.109158733927e-03       1.598025623383e+03 
       5.235164970684e-03       1.629690902461e+03 
       5.361397046972e-03       1.654104625968e+03 
       5.487840905455e-03       1.683700036734e+03 
       5.614483641223e-03       1.703726627411e+03 
       5.741313392305e-03       1.730555562192e+03 
       5.868319241892e-03       1.753972254139e+03 
       5.995491130924e-03       1.779537263266e+03 
       6.122819779841e-03       1.800423289439e+03 
       6.250296618459e-03       1.824499495631e+03 
       6.377913723037e-03       1.847750465585e+03 
       6.505663759748e-03       1.869226524620e+03 
       6.633539933811e-03       1.891436936342e+03 
       6.761535943681e-03       1.911620212637e+03 
       6.889645939731e-03       1.932714022422e+03 
       7.017864486939e-03       1.953305256504e+03 
       7.146186531150e-03       1.973027724483e+03 
       7.274607368536e-03       1.992623245643e+03 
       7.403122617913e-03       2.011753202031e+03 
       7.531728195617e-03       2.030273992551e+03 
       7.660420292679e-03       2.048519734886e+03 
       7.789195354061e-03       2.066325192611e+03 
       7.918050059743e-03       2.083816520850e+03 
       8.046981307487e-03       2.100812959454e+03 
       8.175986197097e-03       2.117365751029e+03 
       8.305062016043e-03       2.134011096016e+03 
       8.434206226306e-03       2.149800856347e+03 
       8.563416452334e-03       2.165173448686e+03 
       8.692690470009e-03       2.180539345452e+03 
       8.822026196517e-03       2.195214446597e+03 
       8.951421681046e-03       2.209454334984e+03 
       9.080875096242e-03       2.224189484803e+03 
       9.210384730342e-03       2.237747109463e+03 
       9.339948979930e-03       2.250958589022e+03 
       9.469566343270e-03       2.263802240447e+03 
       9.599235414141e-03       2.276761657518e+03 
       9.728954876164e-03       2.288941322964e+03 
       9.858723497548e-03       2.300769462414e+03 
       9.988540126240e-03       2.313250666186e+03 
       1.011840368544e-02       2.324438473508e+03 
       1.024831316943e-02       2.335321577888e+03 
       1.037826763976e-02       2.345860874261e+03 
       1.050826622166e-02       2.356619954660e+03 
       1.063830810071e-02       2.366491591214e+03 
       1.076839251983e-02       2.376124760260e+03 
       1.089851877638e-02       2.385413438382e+03 
       1.102868621956e-02       2.395501303405e+03 
       1.115889424790e-02       2.404248768743e+03 
       1.128914230706e-02       2.412701103544e+03 
       1.141942988761e-02       2.420864057758e+03 
       1.154975652315e-02       2.428736426932e+03 
       1.168012178841e-02       2.436811071381e+03 
       1.181052529759e-02       2.444128653133e+03 
       1.194096670275e-02       2.451173645056e+03 
       1.207144569235e-02       2.457946729850e+03 
       1.220196198988e-02       2.465529176279e+03 
       1.233251535257e-02       2.471795625384e+03 
       1.246310557023e-02       2.477778261350e+03 
       1.259373246411e-02       2.483529462387e+03 
       1.272439588595e-02       2.489015278778e+03 
       1.285509571696e-02       2.494787951277e+03 
       1.298583186698e-02       2.499774475831e+03 
       1.311660427365e-02       2.504542731666e+03 
       1.324741290168e-02       2.509070338722e+03 
       1.337825774213e-02       2.513284665704e+03 
       1.350913881178e-02       2.518422036503e+03 
       1.364005615252e-02       2.522279394440e+03 
       1.377100983085e-02       2.525883552108e+03 
       1.390199993732e-02       2.529235959268e+03 
       1.403302658613e-02       2.532403471730e+03 
       1.416408991468e-02       2.535850536514e+03 
       1.429519008321e-02       2.538544043321e+03 
       1.442632727444e-02       2.541070500622e+03 
       1.455750169328e-02       2.543334356531e+03 
       1.468871356657e-02       2.545432406050e+03 
       1.480253419385e-02       2.547105291256e+03 
       1.481996314279e-02       2.547339674555e+03 
       1.495125069189e-02       2.550024081778e+03 
       1.508257650510e-02       2.551522168042e+03 
       1.521394089476e-02       2.552846925074e+03 
       1.534534419420e-02       2.553923726476e+03 
       1.547678675763e-02       2.554867418502e+03 
       1.560826896006e-02       2.555578580318e+03 
       1.573979119725e-02       2.556606178396e+03 
       1.587135388568e-02       2.556995209434e+03 
       1.600295746251e-02       2.557147451873e+03 
       1.613460238562e-02       2.557178909864e+03 
       1.626628913364e-02       2.556999770323e+03 
       1.639801820596e-02       2.556617989673e+03 
       1.652979012286e-02       2.557094927830e+03 
       1.666160542554e-02       2.556400258483e+03 
       1.679346467627e-02       2.555570251471e+03 
       1.692536845850e-02       2.554550285576e+03 
       1.705731737699e-02       2.553399467428e+03 
       1.718931205801e-02       2.552058274700e+03 
       1.732135314947e-02       2.551025617662e+03 
       1.745344132116e-02       2.549422682927e+03 
       1.758557726493e-02       2.547618543351e+03 
       1.771776169496e-02       2.545694215995e+03 
       1.784999534796e-02       2.543588921592e+03 
       1.798227898346e-02       2.541386557659e+03 
       1.811461338410e-02       2.538977097154e+03 
       1.824699935591e-02       2.537373094827e+03 
       1.837943772863e-02       2.534727944117e+03 
       1.851192935605e-02       2.531974776749e+03 
       1.864447511633e-02       2.529050380861e+03 
       1.877707591241e-02       2.526046326434e+03 
       1.890973267235e-02       2.522849604062e+03 
       1.904244634975e-02       2.519577260004e+03 
       1.917521792415e-02       2.516139944830e+03 
       1.930804840150e-02       2.513037474997e+03 
       1.944093881456e-02       2.509370012085e+03 
       1.957389022340e-02       2.505629148058e+03 
       1.970690371589e-02       2.501709394281e+03 
       1.983998040819e-02       2.497732217910e+03 
       1.997312144528e-02       2.493583243829e+03 
       2.010632800151e-02       2.489380807886e+03 
       2.023960128114e-02       2.485842859380e+03 
       2.037294251895e-02       2.481409442785e+03 
       2.050635298082e-02       2.476884579912e+03 
       2.063983396438e-02       2.472235638786e+03 
       2.077338679962e-02       2.467515569745e+03 
       2.090701284956e-02       2.462674969148e+03 
       2.104071351097e-02       2.457747505074e+03 
       2.117449021503e-02       2.452713138667e+03 
       2.130834442812e-02       2.447592931028e+03 
       2.144227765250e-02       2.442772692025e+03 
       2.157629142718e-02       2.437495303049e+03 
       2.171038732863e-02       2.432101993807e+03 
       2.184456697170e-02       2.426624056787e+03 
       2.197883201041e-02       2.421079808811e+03 
       2.211318413885e-02       2.415438670600e+03 
       2.224762509212e-02       2.409727144777e+03 
       2.238215664722e-02       2.403932301906e+03 
       2.251678062407e-02       2.398792396319e+03 
       2.265149888648e-02       2.392864464618e+03 
       2.278631334317e-02       2.386846672473e+03 
       2.292122594886e-02       2.380781571022e+03 
       2.305623870533e-02       2.374616089215e+03 
       2.319135366261e-02       2.368411498370e+03 
       2.332657292008e-02       2.362111783947e+03 
       2.346189862770e-02       2.355752642513e+03 
       2.359733298724e-02       2.349358016324e+03 
       2.373287825358e-02       2.343197240105e+03 
       2.386853673601e-02       2.336671240798e+03 
       2.400431079958e-02       2.330072071220e+03 
       2.414020286653e-02       2.323420636581e+03 
       2.427621541771e-02       2.316707611995e+03 
       2.441235099410e-02       2.309934831852e+03 
       2.454861219833e-02       2.303108365848e+03 
       2.468500169627e-02       2.296254667451e+03 
       2.482152221870e-02       2.289318527018e+03 
       2.495817656296e-02       2.282369831160e+03 
       2.509496759475e-02       2.275973064908e+03 
       2.523189824991e-02       2.268918768109e+03 
       2.536897153627e-02       2.261814559498e+03 
       2.550619053563e-02       2.254663400582e+03 
       2.564355840570e-02       2.247461521571e+03 
       2.578107838219e-02       2.240249380117e+03 
       2.591875378092e-02       2.232951661755e+03 
       2.605658800004e-02       2.225670735138e+03 
       2.619458452228e-02       2.218306001702e+03 
       2.633274691732e-02       2.210913954006e+03 
       2.647107884421e-02       2.203807554755e+03 
       2.660958405390e-02       2.196344175144e+03 
       2.674826639183e-02       2.188877428445e+03 
       2.688712980062e-02       2.181353807016e+03 
       2.702617832287e-02       2.173808925427e+03 
       2.716541610406e-02       2.166230679601e+03 
       2.730484739551e-02       2.158646027774e+03 
       2.744447655749e-02       2.150995458070e+03 
       2.758430806242e-02       2.143344544346e+03 
       2.772434649824e-02       2.135675950718e+03 
       2.786459657177e-02       2.128497803558e+03 
       2.800506311237e-02       2.120797125489e+03 
       2.814575107561e-02       2.113047730437e+03 
       2.828666554709e-02       2.105285344086e+03 
       2.842781174646e-02       2.097500773951e+03 
       2.856919503158e-02       2.089730163335e+03 
       2.871082090275e-02       2.081900327369e+03 
       2.885269500724e-02       2.074081527675e+03 
       2.899482314387e-02       2.066228593940e+03 
       2.913721126789e-02       2.058354919313e+03 
       2.927986549593e-02       2.050489940057e+03 
       2.942279211123e-02       2.042831941093e+03 
       2.956599756903e-02       2.034929282657e+03 
       2.970948850224e-02       2.027006764945e+03 
       2.985327172727e-02       2.019096225194e+03 
       2.999735425014e-02       2.011128762844e+03 
       3.014174327281e-02       2.003189391887e+03 
       3.028644619982e-02       1.995242309872e+03 
       3.043147064517e-02       1.987268902201e+03 
       3.057682443950e-02       1.979305041487e+03 
       3.072251563759e-02       1.971340520941e+03 
       3.086855252616e-02       1.963348159502e+03 
       3.101494363204e-02       1.955379103591e+03 
       3.116169773065e-02       1.947824969157e+03 
       3.130882385491e-02       1.939837497519e+03 
       3.145633130451e-02       1.931838788518e+03 
       3.160422965559e-02       1.923857815066e+03 
       3.175252877091e-02       1.915860865769e+03 
       3.190123881043e-02       1.907857230909e+03 
       3.205037024240e-02       1.899870788937e+03 
       3.219993385497e-02       1.891873367056e+03 
       3.234994076835e-02       1.883872770380e+03 
       3.250040244754e-02       1.875890701269e+03 
       3.265133071567e-02       1.867890203431e+03 
       3.280273776799e-02       1.860089411591e+03 
       3.295463618654e-02       1.852096166906e+03 
       3.310703895557e-02       1.844124424402e+03 
       3.325995947765e-02       1.836138986808e+03 
       3.341341159072e-02       1.828163198918e+03 
       3.356740958590e-02       1.820199977686e+03 
       3.372196822623e-02       1.812225187023e+03 
       3.387710276645e-02       1.804259797854e+03 
       3.403282897374e-02       1.796315367204e+03 
       3.418916314963e-02       1.788355440574e+03 
       3.434612215297e-02       1.780410346789e+03 
       3.450372342432e-02       1.772452664344e+03 
       3.466198501149e-02       1.764890055845e+03 
       3.482092559664e-02       1.756966019987e+03 
       3.498056452478e-02       1.749050835738e+03 
       3.514092183400e-02       1.741152381061e+03 
       3.530201828731e-02       1.733248698977e+03 
       3.546387540639e-02       1.725354390324e+03 
       3.562651550733e-02       1.717481056065e+03 
       3.578996173843e-02       1.709601786972e+03 
       3.595423812031e-02       1.701734989233e+03 
       3.611936958842e-02       1.693886718499e+03 
       3.628538203816e-02       1.686030345729e+03 
       3.645230237284e-02       1.678190040458e+03 
       3.662015855459e-02       1.670354299651e+03 
       3.678897965856e-02       1.662700845708e+03 
       3.695879593055e-02       1.654885704613e+03 
       3.712963884849e-02       1.647078360423e+03 
       3.730154118791e-02       1.639292460952e+03 
       3.747453709175e-02       1.631505695746e+03 
       3.764866214504e-02       1.623727034437e+03 
       3.782395345456e-02       1.615969685379e+03 
       3.800044973413e-02       1.608204959013e+03 
       3.817819139589e-02       1.600455744860e+03 
       3.835722064810e-02       1.592708493218e+03 
       3.853758160004e-02       1.584985953968e+03 
       3.871932037463e-02       1.577243969531e+03 
       3.890248522941e-02       1.569811152106e+03 
       3.908712668673e-02       1.562110171640e+03 
       3.927329767388e-02       1.554407189594e+03 
       3.946105367414e-02       1.546714453630e+03 
       3.965045288984e-02       1.539037380154e+03 
       3.984155641841e-02       1.531354244841e+03 
       4.003442844285e-02       1.523682472744e+03 
       4.022913643797e-02       1.516013231461e+03 
       4.042575139393e-02       1.508360280836e+03 
       4.062434805896e-02       1.500700539505e+03 
       4.082500520308e-02       1.493052347743e+03 
       4.102780590524e-02       1.485529311792e+03 
       4.123283786613e-02       1.477881343566e+03 
       4.144019374966e-02       1.470243472229e+03 
       4.164997155611e-02       1.462608978632e+03 
       4.186227503070e-02       1.454966948396e+03 
       4.207721411140e-02       1.447337897597e+03 
       4.229490542074e-02       1.439697013509e+03 
       4.251547280671e-02       1.432058853297e+03 
       4.273904793881e-02       1.424415291479e+03 
       4.296577096579e-02       1.416778976462e+03 
       4.319579124319e-02       1.409125846877e+03 
       4.342926813921e-02       1.401681844676e+03 
       4.366637192936e-02       1.394029331572e+03 
       4.390728479165e-02       1.386360842791e+03 
       4.415220191594e-02       1.378693406113e+03 
       4.440133274326e-02       1.371005381142e+03 
       4.465490235347e-02       1.363307858863e+03 
       4.491315302283e-02       1.355599564166e+03 
       4.517634597636e-02       1.347875577710e+03 
       4.544476336463e-02       1.340130732701e+03 
       4.571871049946e-02       1.332373627554e+03 
       4.599851838954e-02       1.324678770921e+03 
       4.628454662445e-02       1.316876514050e+03 
       4.657718666477e-02       1.309040070063e+03 
       4.687686560706e-02       1.301175041530e+03 
       4.718405050644e-02       1.293282763796e+03 
       4.749925335576e-02       1.285348589338e+03 
       4.782303684161e-02       1.277381574063e+03 
       4.815602102227e-02       1.269364280219e+03 
       4.849889110512e-02       1.261302207286e+03 
       4.885240653994e-02       1.253350506020e+03 
       4.921741169442e-02       1.245183289658e+03 
       4.959484844051e-02       1.236947407650e+03 
       4.998577105846e-02       1.228640567978e+03 
       5.039136396541e-02       1.220263178380e+03 
       5.081296290155e-02       1.211791363777e+03 
       5.125208036798e-02       1.203230241340e+03 
       5.171043631553e-02       1.194632774400e+03 
       5.218999534564e-02       1.185842698552e+03 
       5.269301201641e-02       1.176920782243e+03 
       5.322208626700e-02       1.167845204947e+03 
       5.378023149711e-02       1.158602815687e+03 
       5.437095847824e-02       1.149164480161e+03 
       5.499837902536e-02       1.139626338056e+03 
       5.566733417972e-02       1.129702744348e+03 
       5.638355241613e-02       1.119470922303e+03 
       5.715384378416e-02       1.108873261221e+03 
       5.798633525433e-02       1.097836756979e+03 
       5.889074951543e-02       1.086322651856e+03 
       5.987872144796e-02       1.074095829055e+03 
       6.096412874284e-02       1.061046858358e+03 
