# Matter power spectrum P(k) at redshift z=3
# for k=1.04489e-05 to 1.48025 h/Mpc,
# number of wavenumbers equal to 610
#    1:k (h/Mpc)              2:P (Mpc/h)^3        
       1.044889052359e-05       5.000347697771e+00 
       2.353250953764e-05       1.096641487103e+01 
       3.666314006555e-05       1.683925438354e+01 
       4.987723299491e-05       2.267854018499e+01 
       6.321185692224e-05       2.851899697090e+01 
       7.670503912403e-05       3.438717692737e+01 
       9.039611770381e-05       4.030615257402e+01 
       1.043261097374e-04       4.629744859583e+01 
       1.185381002745e-04       5.238204329697e+01 
       1.330776570895e-04       5.858098591860e+01 
       1.479932760733e-04       6.491583521417e+01 
       1.633368620803e-04       7.140900942012e+01 
       1.791642498150e-04       7.808409189672e+01 
       1.955357688902e-04       8.496611605768e+01 
       2.125168563774e-04       9.208184282387e+01 
       2.301787188573e-04       9.946003795060e+01 
       2.485990439444e-04       1.071317526833e+02 
       2.678627582543e-04       1.151306080755e+02 
       2.880628244570e-04       1.234930802789e+02 
       3.093010640367e-04       1.322587807524e+02 
       3.316889841928e-04       1.414707213198e+02 
       3.553485765101e-04       1.511755490761e+02 
       3.804130411803e-04       1.614237301494e+02 
       4.070273734470e-04       1.722696541990e+02 
       4.353487287423e-04       1.837716234514e+02 
       4.655464605495e-04       1.959916815245e+02 
       4.978017023537e-04       2.089952298760e+02 
       5.323063456404e-04       2.228503696442e+02 
       5.692612552811e-04       2.376269179589e+02 
       6.088735693042e-04       2.533950338444e+02 
       6.513529610182e-04       2.702234273575e+02 
       6.969068065831e-04       2.881771486010e+02 
       7.457343061515e-04       3.073149917729e+02 
       7.980197499894e-04       3.276866792110e+02 
       8.539252891866e-04       3.493274442383e+02 
       9.135837361310e-04       3.723307341628e+02 
       9.770920433690e-04       3.966094838700e+02 
       1.044506148145e-03       4.222422079188e+02 
       1.115837792523e-03       4.490533340459e+02 
       1.191053730816e-03       4.771029169559e+02 
       1.270077447111e-03       5.062741058718e+02 
       1.352793185880e-03       5.364174461479e+02 
       1.439051819053e-03       5.676195936928e+02 
       1.480253419385e-03       5.824199783547e+02 
       1.528677892303e-03       5.996605319179e+02 
       1.621477138786e-03       6.324684634416e+02 
       1.717243811918e-03       6.658939276601e+02 
       1.815767334085e-03       6.998719081259e+02 
       1.916837939627e-03       7.342864611682e+02 
       2.020251166527e-03       7.690040040472e+02 
       2.125811194932e-03       8.039492086384e+02 
       2.233333130157e-03       8.390599575628e+02 
       2.342644384183e-03       8.742188311169e+02 
       2.453585330734e-03       9.093854412451e+02 
       2.566009405558e-03       9.445198096312e+02 
       2.679782805383e-03       9.794794458528e+02 
       2.794783914183e-03       1.014294080408e+03 
       2.910902559091e-03       1.048884282782e+03 
       3.028039173947e-03       1.083221937060e+03 
       3.146103927439e-03       1.117259155026e+03 
       3.265015855713e-03       1.150986479125e+03 
       3.384702025985e-03       1.184361199237e+03 
       3.505096747661e-03       1.217372121466e+03 
       3.626140840121e-03       1.249989871230e+03 
       3.747780961175e-03       1.282222236780e+03 
       3.869968996660e-03       1.314019509230e+03 
       3.992661509351e-03       1.345402475037e+03 
       4.115819243951e-03       1.376358719469e+03 
       4.239406684125e-03       1.406864894270e+03 
       4.363391657207e-03       1.436926511647e+03 
       4.487744982145e-03       1.466533447336e+03 
       4.612440156351e-03       1.495785307288e+03 
       4.737453077391e-03       1.524553109540e+03 
       4.862761795728e-03       1.543407578490e+03 
       4.988346295053e-03       1.579525127790e+03 
       5.114188297089e-03       1.596009811342e+03 
       5.240271088046e-03       1.628382157288e+03 
       5.366579364242e-03       1.652786827031e+03 
       5.493099094648e-03       1.683053050566e+03 
       5.619817398398e-03       1.702630945743e+03 
       5.746722435519e-03       1.729937749403e+03 
       5.873803309356e-03       1.753412558723e+03 
       6.001049979330e-03       1.779515015967e+03 
       6.128453182850e-03       1.804477751404e+03 
       6.256004365325e-03       1.824652474562e+03 
       6.383695617370e-03       1.848356851178e+03 
       6.511519618380e-03       1.869870434698e+03 
       6.639469585775e-03       1.892629675638e+03 
       6.767539229277e-03       1.912437486659e+03 
       6.895722709677e-03       1.934057607715e+03 
       7.024014601598e-03       1.955212474753e+03 
       7.152409859825e-03       1.975004819399e+03 
       7.280903788828e-03       1.995149574882e+03 
       7.409492015128e-03       2.014854928503e+03 
       7.538170462234e-03       2.032931366375e+03 
       7.666935327852e-03       2.051756616856e+03 
       7.795783063170e-03       2.070148942664e+03 
       7.924710353980e-03       2.087738269920e+03 
       8.053714103474e-03       2.105260916749e+03 
       8.182791416538e-03       2.122434351404e+03 
       8.311939585401e-03       2.138661993681e+03 
       8.441156076505e-03       2.155045972085e+03 
       8.570438518491e-03       2.171063459328e+03 
       8.699784691180e-03       2.186492198707e+03 
       8.829192515461e-03       2.201737405622e+03 
       8.958660044017e-03       2.216647354083e+03 
       9.088185452787e-03       2.230912027209e+03 
       9.217767033115e-03       2.245103202863e+03 
       9.347403184528e-03       2.258943598046e+03 
       9.477092408070e-03       2.272440981711e+03 
       9.606833300159e-03       2.285506392386e+03 
       9.736624546915e-03       2.298329287182e+03 
       9.866464918924e-03       2.310824004493e+03 
       9.996353266393e-03       2.322856980708e+03 
       1.012628851467e-02       2.334705723556e+03 
       1.025626966009e-02       2.346233385219e+03 
       1.038629576617e-02       2.357450043991e+03 
       1.051636595998e-02       2.368306603367e+03 
       1.064647942892e-02       2.378912980307e+03 
       1.077663541760e-02       2.389209911826e+03 
       1.090683322505e-02       2.399211516447e+03 
       1.103707220203e-02       2.408848168564e+03 
       1.116735174860e-02       2.418263866405e+03 
       1.129767131185e-02       2.427392320279e+03 
       1.142803038380e-02       2.436237112714e+03 
       1.155842849938e-02       2.444802063927e+03 
       1.168886523465e-02       2.453070032562e+03 
       1.181934020508e-02       2.461085994945e+03 
       1.194985306396e-02       2.468832347151e+03 
       1.208040350095e-02       2.476312948689e+03 
       1.221099124069e-02       2.483495697556e+03 
       1.234161604156e-02       2.490454385110e+03 
       1.247227769444e-02       2.497157281505e+03 
       1.260297602170e-02       2.503606515618e+03 
       1.273371087609e-02       2.509806526243e+03 
       1.286448213986e-02       2.515747006138e+03 
       1.299528972386e-02       2.521457886477e+03 
       1.312613356672e-02       2.526927349740e+03 
       1.325701363410e-02       2.532159712150e+03 
       1.338792991803e-02       2.537159421049e+03 
       1.351888243622e-02       2.541906429104e+03 
       1.364987123149e-02       2.546444910362e+03 
       1.378089637123e-02       2.550758085108e+03 
       1.391195794692e-02       2.554849070266e+03 
       1.404305607364e-02       2.558719506807e+03 
       1.417419088966e-02       2.562365481797e+03 
       1.430536255611e-02       2.565804794532e+03 
       1.443657125657e-02       2.569031488931e+03 
       1.456781719683e-02       2.572049900526e+03 
       1.469910060457e-02       2.574860626899e+03 
       1.480253419385e-02       2.576930876213e+03 
       1.483042172913e-02       2.577467614950e+03 
       1.496178084132e-02       2.579862424206e+03 
       1.509317823322e-02       2.582070267017e+03 
       1.522461421802e-02       2.584081809273e+03 
       1.535608912989e-02       2.585901123184e+03 
       1.548760332391e-02       2.587528910913e+03 
       1.561915717594e-02       2.588969330736e+03 
       1.575075108259e-02       2.590218977312e+03 
       1.588238546119e-02       2.591289253758e+03 
       1.601406074977e-02       2.592178526027e+03 
       1.614577740709e-02       2.592887745783e+03 
       1.627753591264e-02       2.593420870073e+03 
       1.640933676669e-02       2.593779941870e+03 
       1.654118049039e-02       2.593958732273e+03 
       1.667306762585e-02       2.593976812660e+03 
       1.680499873624e-02       2.593827131794e+03 
       1.693697440591e-02       2.593513421493e+03 
       1.706899524054e-02       2.593036345539e+03 
       1.720106186732e-02       2.592399775686e+03 
       1.733317493511e-02       2.591605386404e+03 
       1.746533511464e-02       2.590651402324e+03 
       1.759754309872e-02       2.589547690000e+03 
       1.772979960250e-02       2.588292458575e+03 
       1.786210536367e-02       2.586888297188e+03 
       1.799446114277e-02       2.585336727593e+03 
       1.812686772345e-02       2.583641565133e+03 
       1.825932591276e-02       2.581797754057e+03 
       1.839183654148e-02       2.579819743690e+03 
       1.852440046446e-02       2.577703408072e+03 
       1.865701856095e-02       2.575451427881e+03 
       1.878969173496e-02       2.573065207479e+03 
       1.892242091567e-02       2.570547695567e+03 
       1.905520705781e-02       2.567900044008e+03 
       1.918805114207e-02       2.565123922616e+03 
       1.932095417555e-02       2.562220755226e+03 
       1.945391719221e-02       2.559196955367e+03 
       1.958694125334e-02       2.556051333943e+03 
       1.972002744802e-02       2.552786749825e+03 
       1.985317689368e-02       2.549404190401e+03 
       1.998639073657e-02       2.545906540852e+03 
       2.011967015233e-02       2.542295058770e+03 
       2.025301634657e-02       2.538566538125e+03 
       2.038643055542e-02       2.534733858302e+03 
       2.051991404612e-02       2.530794075530e+03 
       2.065346811772e-02       2.526747626170e+03 
       2.078709410163e-02       2.522596777544e+03 
       2.092079336235e-02       2.518343869724e+03 
       2.105456729814e-02       2.513990401372e+03 
       2.118841734170e-02       2.509538272041e+03 
       2.132234496095e-02       2.504989108114e+03 
       2.145635165977e-02       2.500342933996e+03 
       2.159043897876e-02       2.495605148233e+03 
       2.172460849607e-02       2.490775811656e+03 
       2.185886182823e-02       2.485856398660e+03 
       2.199320063098e-02       2.480848514156e+03 
       2.212762660018e-02       2.475754148487e+03 
       2.226214147275e-02       2.470574737190e+03 
       2.239674702752e-02       2.465311731292e+03 
       2.253144508630e-02       2.459962526140e+03 
       2.266623751481e-02       2.454537638363e+03 
       2.280112622376e-02       2.449034332311e+03 
       2.293611316988e-02       2.443453673217e+03 
       2.307120035701e-02       2.437797799692e+03 
       2.320638983728e-02       2.432067682420e+03 
       2.334168371223e-02       2.426265451855e+03 
       2.347708413403e-02       2.420392478649e+03 
       2.361259330671e-02       2.414449627498e+03 
       2.374821348746e-02       2.408437620411e+03 
       2.388394698792e-02       2.402360761039e+03 
       2.401979617558e-02       2.396219036183e+03 
       2.415576347514e-02       2.390013760833e+03 
       2.429185137000e-02       2.383746607324e+03 
       2.442806240374e-02       2.377419107333e+03 
       2.456439918164e-02       2.371032462747e+03 
       2.470086437230e-02       2.364587879599e+03 
       2.483746070930e-02       2.358087488614e+03 
       2.497419099284e-02       2.351531821561e+03 
       2.511105809155e-02       2.344919900968e+03 
       2.524806494427e-02       2.338258849950e+03 
       2.538521456192e-02       2.331547002514e+03 
       2.552251002945e-02       2.324785518516e+03 
       2.565995450781e-02       2.317976332226e+03 
       2.579755123603e-02       2.311120163116e+03 
       2.593530353333e-02       2.304218697989e+03 
       2.607321480135e-02       2.297272736971e+03 
       2.621128852642e-02       2.290283950636e+03 
       2.634952828187e-02       2.283253446909e+03 
       2.648793773053e-02       2.276180666076e+03 
       2.662652062723e-02       2.269070333316e+03 
       2.676528082136e-02       2.261921652573e+03 
       2.690422225963e-02       2.254736089363e+03 
       2.704334898883e-02       2.247514627322e+03 
       2.718266515872e-02       2.240258496774e+03 
       2.732217502505e-02       2.232968530837e+03 
       2.746188295261e-02       2.225646334841e+03 
       2.760179341849e-02       2.218292490503e+03 
       2.774191101540e-02       2.210908185227e+03 
       2.788224045509e-02       2.203491955865e+03 
       2.802278657197e-02       2.196049894925e+03 
       2.816355432680e-02       2.188580605787e+03 
       2.830454881052e-02       2.181085035708e+03 
       2.844577524829e-02       2.173564122307e+03 
       2.858723900358e-02       2.166018691912e+03 
       2.872894558254e-02       2.158450012608e+03 
       2.887090063840e-02       2.150858670994e+03 
       2.901310997613e-02       2.143245963166e+03 
       2.915557955732e-02       2.135612560101e+03 
       2.929831550511e-02       2.127959559517e+03 
       2.944132410945e-02       2.120286409987e+03 
       2.958461183250e-02       2.112596483403e+03 
       2.972818531428e-02       2.104889531950e+03 
       2.987205137855e-02       2.097166146994e+03 
       3.001621703886e-02       2.089427574132e+03 
       3.016068950498e-02       2.081674278570e+03 
       3.030547618947e-02       2.073907221036e+03 
       3.045058471462e-02       2.066127303414e+03 
       3.059602291961e-02       2.058335037316e+03 
       3.074179886802e-02       2.050531360954e+03 
       3.088792085568e-02       2.042717085952e+03 
       3.103439741878e-02       2.034892603451e+03 
       3.118123734244e-02       2.027056824896e+03 
       3.132844966958e-02       2.019214554553e+03 
       3.147604371022e-02       2.011364569406e+03 
       3.162402905117e-02       2.003507155081e+03 
       3.177241556624e-02       1.995643252213e+03 
       3.192121342678e-02       1.987773425175e+03 
       3.207043311282e-02       1.979898082556e+03 
       3.222008542472e-02       1.972018013555e+03 
       3.237018149532e-02       1.964133798558e+03 
       3.252073280265e-02       1.956245804651e+03 
       3.267175118338e-02       1.948354833060e+03 
       3.282324884676e-02       1.940460198697e+03 
       3.297523838931e-02       1.932564537228e+03 
       3.312773281032e-02       1.924667109079e+03 
       3.328074552794e-02       1.916768693733e+03 
       3.343429039626e-02       1.908869579189e+03 
       3.358838172315e-02       1.900970114026e+03 
       3.374303428903e-02       1.893071040284e+03 
       3.389826336670e-02       1.885172562553e+03 
       3.405408474207e-02       1.877274972439e+03 
       3.421051473612e-02       1.869379017406e+03 
       3.436757022796e-02       1.861484722382e+03 
       3.452526867915e-02       1.853592637078e+03 
       3.468362815940e-02       1.845700989498e+03 
       3.484266737361e-02       1.837814140900e+03 
       3.500240569050e-02       1.829930385378e+03 
       3.516286317281e-02       1.822049933692e+03 
       3.532406060927e-02       1.814173264872e+03 
       3.548601954834e-02       1.806300503348e+03 
       3.564876233407e-02       1.798431776827e+03 
       3.581231214390e-02       1.790567543793e+03 
       3.597669302888e-02       1.782707900145e+03 
       3.614192995624e-02       1.774852846846e+03 
       3.630804885460e-02       1.767002827561e+03 
       3.647507666199e-02       1.759157837075e+03 
       3.664304137685e-02       1.751318007955e+03 
       3.681197211234e-02       1.743482482857e+03 
       3.698189915410e-02       1.735653209440e+03 
       3.715285402176e-02       1.727829315858e+03 
       3.732486953459e-02       1.720010712428e+03 
       3.749797988145e-02       1.712197601643e+03 
       3.767222069553e-02       1.704389904371e+03 
       3.784762913424e-02       1.696587488067e+03 
       3.802424396461e-02       1.688790490298e+03 
       3.820210565476e-02       1.680998643933e+03 
       3.838125647189e-02       1.673212027101e+03 
       3.856174058738e-02       1.665430275330e+03 
       3.874360418959e-02       1.657653498624e+03 
       3.892689560516e-02       1.649879913950e+03 
       3.911166542938e-02       1.642112219870e+03 
       3.929796666661e-02       1.634348947914e+03 
       3.948585488170e-02       1.626589694575e+03 
       3.967538836331e-02       1.618834115568e+03 
       3.986662830034e-02       1.611082102671e+03 
       4.005963897285e-02       1.603333137280e+03 
       4.025448795866e-02       1.595586995476e+03 
       4.045124635741e-02       1.587843093384e+03 
       4.064998903379e-02       1.580101214752e+03 
       4.085079488188e-02       1.572360723974e+03 
       4.105374711285e-02       1.564620474085e+03 
       4.125893356855e-02       1.556881272163e+03 
       4.146644706367e-02       1.549141746177e+03 
       4.167638575989e-02       1.541401241972e+03 
       4.188885357523e-02       1.533659244520e+03 
       4.210396063308e-02       1.525914748544e+03 
       4.232182375506e-02       1.518167175536e+03 
       4.254256700332e-02       1.510415531649e+03 
       4.276632227798e-02       1.502658964312e+03 
       4.299322997661e-02       1.494896369931e+03 
       4.322343972353e-02       1.487126923272e+03 
       4.345711117777e-02       1.479348141159e+03 
       4.369441493008e-02       1.471561260968e+03 
       4.393553350076e-02       1.463763940358e+03 
       4.418066245197e-02       1.455954615834e+03 
       4.443001163045e-02       1.448132056920e+03 
       4.468380655909e-02       1.440294598418e+03 
       4.494228999886e-02       1.432440548628e+03 
       4.520572370625e-02       1.424568143276e+03 
       4.547439041582e-02       1.416675497064e+03 
       4.574859608265e-02       1.408760433268e+03 
       4.602867242559e-02       1.400820835450e+03 
       4.631497982028e-02       1.392853571217e+03 
       4.660791059964e-02       1.384857204284e+03 
       4.690789283098e-02       1.376828265226e+03 
       4.721539465280e-02       1.368763621417e+03 
       4.753092927066e-02       1.360660002927e+03 
       4.785506073291e-02       1.352513613780e+03 
       4.818841063205e-02       1.344320560782e+03 
       4.853166590988e-02       1.336076284253e+03 
       4.888558798410e-02       1.327774997765e+03 
       4.925102346372e-02       1.319413215346e+03 
       4.962891678346e-02       1.310983989616e+03 
       5.002032516614e-02       1.302480513825e+03 
       5.042643642217e-02       1.293895079358e+03 
       5.084859022243e-02       1.285219176879e+03 
       5.128830364260e-02       1.276442781628e+03 
       5.174730198345e-02       1.267554223254e+03 
       5.222755613437e-02       1.258541333407e+03 
       5.273132808188e-02       1.249388397113e+03 
       5.326122658610e-02       1.240077601872e+03 
       5.382027557529e-02       1.230587638851e+03 
       5.441199845013e-02       1.220893006921e+03 
       5.504052224453e-02       1.210961880352e+03 
       5.571070641227e-02       1.200757269697e+03 
       5.642830176867e-02       1.190230507718e+03 
       5.720014550021e-02       1.179321056184e+03 
       5.803439748570e-02       1.167951456076e+03 
       5.894082007802e-02       1.156020745887e+03 
       5.993109533311e-02       1.143396702240e+03 
       6.101915564864e-02       1.129901868630e+03 
