# Matter power spectrum P(k) at redshift z=0
# for k=1.04401e-05 to 1.48025 h/Mpc,
# number of wavenumbers equal to 610
#    1:k (h/Mpc)              2:P (Mpc/h)^3        
       1.044009177906e-05       5.017825728572e+01 
       2.351670044935e-05       1.100653262663e+02 
       3.664023640594e-05       1.690155053899e+02 
       4.984709169325e-05       2.276273337371e+02 
       6.317427433263e-05       2.862489281445e+02 
       7.665974837288e-05       3.451462429119e+02 
       9.034278507427e-05       4.045502405703e+02 
       1.042643300301e-04       4.646763956186e+02 
       1.184673910662e-04       5.257125645130e+02 
       1.329974517928e-04       5.879103081247e+02 
       1.479029156839e-04       6.514657507290e+02 
       1.632355854798e-04       7.166216804902e+02 
       1.790511824837e-04       7.835775688036e+02 
       1.954099098730e-04       8.526003201582e+02 
       2.123770633381e-04       9.239454219660e+02 
       2.300236910631e-04       9.979211738421e+02 
       2.484273030391e-04       1.074826620305e+03 
       2.676726267163e-04       1.155085774183e+03 
       2.878524017089e-04       1.238896107470e+03 
       3.090682002806e-04       1.326723535698e+03 
       3.314312522111e-04       1.419035742097e+03 
       3.550632419066e-04       1.516291445070e+03 
       3.800970318608e-04       1.618896819061e+03 
       4.066772495679e-04       1.727241672524e+03 
       4.349606548944e-04       1.842322530891e+03 
       4.651161825988e-04       1.964547591747e+03 
       4.973245320832e-04       2.094628543773e+03 
       5.317771570782e-04       2.233506134259e+03 
       5.686744972129e-04       2.381149422601e+03 
       6.082232987923e-04       2.538629331161e+03 
       6.506329025133e-04       2.706330959805e+03 
       6.961104401740e-04       2.885617932553e+03 
       7.448549864116e-04       3.076646894387e+03 
       7.970508536835e-04       3.279923788501e+03 
       8.528603860056e-04       3.495277561437e+03 
       9.124167721928e-04       3.723679190210e+03 
       9.758175233792e-04       3.965545187710e+03 
       1.043119299923e-03       4.220313425446e+03 
       1.114334697960e-03       4.487516102359e+03 
       1.189431410554e-03       4.766520955894e+03 
       1.268333891910e-03       5.057211316721e+03 
       1.350927334461e-03       5.358273841123e+03 
       1.437063488801e-03       5.669110998351e+03 
       1.480253419385e-03       5.823585594389e+03 
       1.526567674019e-03       5.988578237865e+03 
       1.619246269118e-03       6.315571246769e+03 
       1.714894036975e-03       6.649005281633e+03 
       1.813300775774e-03       6.987844761629e+03 
       1.914256973178e-03       7.330953692776e+03 
       2.017558314408e-03       7.677438837872e+03 
       2.123009039408e-03       8.026299042677e+03 
       2.230424244545e-03       8.376591839481e+03 
       2.339631281331e-03       8.727546422209e+03 
       2.450470426462e-03       9.078569184714e+03 
       2.562794994472e-03       9.428935501168e+03 
       2.676471046530e-03       9.772996549938e+03 
       2.791376824221e-03       1.014348991972e+04 
       2.907402011034e-03       1.046982515684e+04 
       3.024446899857e-03       1.083268806513e+04 
       3.142421523789e-03       1.114884335673e+04 
       3.261244790452e-03       1.152561267222e+04 
       3.380843646575e-03       1.184520436877e+04 
       3.501152289546e-03       1.210723141208e+04 
       3.622111435269e-03       1.247688353340e+04 
       3.743667646422e-03       1.279385682636e+04 
       3.865772721702e-03       1.316129555379e+04 
       3.988383144275e-03       1.342359771913e+04 
       4.111459586259e-03       1.373835474584e+04 
       4.234966465223e-03       1.408497761281e+04 
       4.358871548368e-03       1.435067306430e+04 
       4.483145599953e-03       1.465196562286e+04 
       4.607762067663e-03       1.497820213941e+04 
       4.732696803840e-03       1.523812336253e+04 
       4.857927817806e-03       1.552576889953e+04 
       4.983435055801e-03       1.578121240069e+04 
       5.109200205437e-03       1.608532715340e+04 
       5.235206521831e-03       1.633627994126e+04 
       5.361438672932e-03       1.660680277358e+04 
       5.487882601802e-03       1.684982957586e+04 
       5.614525403892e-03       1.712802736099e+04 
       5.741355217555e-03       1.736806502371e+04 
       5.868361126280e-03       1.761885950794e+04 
       5.995533071274e-03       1.784979690988e+04 
       6.122861773223e-03       1.810407784233e+04 
       6.250338662163e-03       1.832809100201e+04 
       6.377955814558e-03       1.855006702726e+04 
       6.505705896765e-03       1.877881110348e+04 
       6.633582114173e-03       1.899195118873e+04 
       6.761578165393e-03       1.921963925391e+04 
       6.889688200939e-03       1.942576494344e+04 
       7.017906785920e-03       1.962779934235e+04 
       7.146228866300e-03       1.983383377240e+04 
       7.274649738364e-03       2.002875647998e+04 
       7.403165021027e-03       2.021977232200e+04 
       7.531770630721e-03       2.041940380298e+04 
       7.660462758563e-03       2.060293187594e+04 
       7.789237849595e-03       2.078286119358e+04 
       7.918092583871e-03       2.096382552774e+04 
       8.047023859224e-03       2.113697176794e+04 
       8.176028775521e-03       2.130584967163e+04 
       8.305104620290e-03       2.147890867526e+04 
       8.434248855568e-03       2.164071332563e+04 
       8.563459105856e-03       2.179874797183e+04 
       8.692733147083e-03       2.195677388145e+04 
       8.822068896480e-03       2.210826710213e+04 
       8.951464403277e-03       2.225582705466e+04 
       9.080917840160e-03       2.240544914757e+04 
       9.210427495401e-03       2.254628372393e+04 
       9.339991765621e-03       2.268383508441e+04 
       9.469609149113e-03       2.281802099283e+04 
       9.599278239690e-03       2.295098245876e+04 
       9.728997721000e-03       2.307866057737e+04 
       9.858766361279e-03       2.320306192267e+04 
       9.988583008499e-03       2.332775560649e+04 
       1.011844658588e-02       2.344576635818e+04 
       1.024835608774e-02       2.356072150658e+04 
       1.037831057564e-02       2.367252880727e+04 
       1.050830917483e-02       2.378276526454e+04 
       1.063835107091e-02       2.388832363959e+04 
       1.076843550682e-02       2.399113831401e+04 
       1.089856177995e-02       2.409089058002e+04 
       1.102872923949e-02       2.419011684673e+04 
       1.115893728401e-02       2.428410294091e+04 
       1.128918535916e-02       2.437524760674e+04 
       1.141947295556e-02       2.446358046936e+04 
       1.154979960679e-02       2.454909896355e+04 
       1.168016488761e-02       2.463269155152e+04 
       1.181056841222e-02       2.471273708767e+04 
       1.194100983272e-02       2.479009083912e+04 
       1.207148883756e-02       2.486480364434e+04 
       1.220200515023e-02       2.493838694307e+04 
       1.233255852800e-02       2.500784144823e+04 
       1.246314876066e-02       2.507471883415e+04 
       1.259377566951e-02       2.513910796172e+04 
       1.272443910626e-02       2.520097744339e+04 
       1.285513895215e-02       2.526098699930e+04 
       1.298587511702e-02       2.531793305808e+04 
       1.311664753853e-02       2.537251828489e+04 
       1.324745618139e-02       2.542472381584e+04 
       1.337830103667e-02       2.547448473858e+04 
       1.350918212116e-02       2.552301987608e+04 
       1.364009947677e-02       2.556825938573e+04 
       1.377105316998e-02       2.561121759668e+04 
       1.390204329137e-02       2.565194383104e+04 
       1.403306995515e-02       2.569046115157e+04 
       1.416413329871e-02       2.572723767655e+04 
       1.429523348230e-02       2.576136976142e+04 
       1.442637068867e-02       2.579342574278e+04 
       1.455754512272e-02       2.582334182526e+04 
       1.468875701128e-02       2.585123233192e+04 
       1.480253419385e-02       2.587375815470e+04 
       1.482000660287e-02       2.587706505988e+04 
       1.495129416743e-02       2.590151773291e+04 
       1.508261999620e-02       2.592332982960e+04 
       1.521398440153e-02       2.594319949033e+04 
       1.534538771675e-02       2.596109008138e+04 
       1.547683029607e-02       2.597711325049e+04 
       1.560831251453e-02       2.599121591760e+04 
       1.573983476789e-02       2.600373194705e+04 
       1.587139747261e-02       2.601415474453e+04 
       1.600300106590e-02       2.602271750236e+04 
       1.613464600561e-02       2.602952925426e+04 
       1.626633277039e-02       2.603455167934e+04 
       1.639806185965e-02       2.603780437865e+04 
       1.652983379366e-02       2.603981734526e+04 
       1.666164911363e-02       2.603965225599e+04 
       1.679350838184e-02       2.603783004294e+04 
       1.692541218174e-02       2.603433618948e+04 
       1.705736111811e-02       2.602923621010e+04 
       1.718935581721e-02       2.602251239727e+04 
       1.732139692698e-02       2.601439385737e+04 
       1.745348511720e-02       2.600454375390e+04 
       1.758562107974e-02       2.599312848617e+04 
       1.771780552876e-02       2.598021202540e+04 
       1.785003920101e-02       2.596578642417e+04 
       1.798232285601e-02       2.594990768674e+04 
       1.811465727641e-02       2.593255122184e+04 
       1.824704326825e-02       2.591410145629e+04 
       1.837948166129e-02       2.589391630472e+04 
       1.851197330930e-02       2.587235769503e+04 
       1.864451909047e-02       2.584941855887e+04 
       1.877711990774e-02       2.582513814048e+04 
       1.890977668918e-02       2.579951078840e+04 
       1.904249038840e-02       2.577261984433e+04 
       1.917526198495e-02       2.574443704235e+04 
       1.930809248478e-02       2.571512461477e+04 
       1.944098292067e-02       2.568443119703e+04 
       1.957393435269e-02       2.565253067142e+04 
       1.970694786873e-02       2.561940860475e+04 
       1.984002458495e-02       2.558511813211e+04 
       1.997316564634e-02       2.554964756352e+04 
       2.010637222726e-02       2.551305621084e+04 
       2.023964553198e-02       2.547555264573e+04 
       2.037298679530e-02       2.543672472244e+04 
       2.050639728310e-02       2.539681321084e+04 
       2.063987829302e-02       2.535582544231e+04 
       2.077343115506e-02       2.531380094220e+04 
       2.090705723226e-02       2.527073887005e+04 
       2.104075792140e-02       2.522666733151e+04 
       2.117453465367e-02       2.518160012399e+04 
       2.130838889544e-02       2.513555908680e+04 
       2.144232214903e-02       2.508865469886e+04 
       2.157633595341e-02       2.504072081469e+04 
       2.171043188510e-02       2.499185604390e+04 
       2.184461155894e-02       2.494208948119e+04 
       2.197887662897e-02       2.489143559726e+04 
       2.211322878930e-02       2.483990636803e+04 
       2.224766977503e-02       2.478752602965e+04 
       2.238220136320e-02       2.473430558490e+04 
       2.251682537372e-02       2.468043613941e+04 
       2.265154367042e-02       2.462559197674e+04 
       2.278635816203e-02       2.456995546306e+04 
       2.292127080330e-02       2.451355388851e+04 
       2.305628359602e-02       2.445638560363e+04 
       2.319139859023e-02       2.439848448093e+04 
       2.332661788533e-02       2.433985250149e+04 
       2.346194363129e-02       2.428050314689e+04 
       2.359737802991e-02       2.422046203676e+04 
       2.373292333609e-02       2.415981578846e+04 
       2.386858185912e-02       2.409843690461e+04 
       2.400435596409e-02       2.403640314244e+04 
       2.414024807324e-02       2.397373718523e+04 
       2.427626066745e-02       2.391045020486e+04 
       2.441239628772e-02       2.384655543625e+04 
       2.454865753669e-02       2.378206620639e+04 
       2.468504708026e-02       2.371700591641e+04 
       2.482156764923e-02       2.365137679530e+04 
       2.495822204097e-02       2.358520510081e+04 
       2.509501312120e-02       2.351862479807e+04 
       2.523194382577e-02       2.345139158370e+04 
       2.536901716255e-02       2.338364911218e+04 
       2.550623621336e-02       2.331540918391e+04 
       2.564360413592e-02       2.324668372981e+04 
       2.578112416599e-02       2.317749725314e+04 
       2.591879961941e-02       2.310784309785e+04 
       2.605663389434e-02       2.303775738721e+04 
       2.619463047356e-02       2.296722947069e+04 
       2.633279292677e-02       2.289628420784e+04 
       2.647112491306e-02       2.282500146810e+04 
       2.660963018339e-02       2.275325388036e+04 
       2.674831258324e-02       2.268113017990e+04 
       2.688717605527e-02       2.260862939796e+04 
       2.702622464212e-02       2.253577075625e+04 
       2.716546248929e-02       2.246256249038e+04 
       2.730489384813e-02       2.238902201676e+04 
       2.744452307896e-02       2.231514501442e+04 
       2.758435465424e-02       2.224096056112e+04 
       2.772439316192e-02       2.216647316074e+04 
       2.786464330890e-02       2.209180079037e+04 
       2.800510992456e-02       2.201674049430e+04 
       2.814579796450e-02       2.194139565685e+04 
       2.828671251439e-02       2.186579175020e+04 
       2.842785879392e-02       2.178993558196e+04 
       2.856924216098e-02       2.171384191428e+04 
       2.871086811593e-02       2.163751054714e+04 
       2.885274230608e-02       2.156095916141e+04 
       2.899487053031e-02       2.148418970364e+04 
       2.913725874392e-02       2.140721347055e+04 
       2.927991306359e-02       2.133004332005e+04 
       2.942283977261e-02       2.125273713918e+04 
       2.956604532630e-02       2.117520268247e+04 
       2.970953635762e-02       2.109749634401e+04 
       2.985331968303e-02       2.101963493190e+04 
       2.999740230861e-02       2.094161472780e+04 
       3.014179143641e-02       2.086345284122e+04 
       3.028649447102e-02       2.078515500785e+04 
       3.043151902651e-02       2.070672427037e+04 
       3.057687293360e-02       2.062817632861e+04 
       3.072256424714e-02       2.054951570053e+04 
       3.086860125393e-02       2.047074424987e+04 
       3.101499248088e-02       2.039188049101e+04 
       3.116174670350e-02       2.031301955015e+04 
       3.130887295479e-02       2.023397768124e+04 
       3.145638053452e-02       2.015485585422e+04 
       3.160427901893e-02       2.007566739486e+04 
       3.175257827089e-02       1.999641071328e+04 
       3.190128845044e-02       1.991709397966e+04 
       3.205042002593e-02       1.983772895501e+04 
       3.219998378564e-02       1.975831475603e+04 
       3.234999084988e-02       1.967885891560e+04 
       3.250045268377e-02       1.959937226285e+04 
       3.265138111055e-02       1.951985130177e+04 
       3.280278832560e-02       1.944035079730e+04 
       3.295468691110e-02       1.936078625937e+04 
       3.310708985141e-02       1.928121210518e+04 
       3.326001054926e-02       1.920162502290e+04 
       3.341346284274e-02       1.912203476663e+04 
       3.356746102310e-02       1.904244582213e+04 
       3.372201985357e-02       1.896285741603e+04 
       3.387715458903e-02       1.888327858788e+04 
       3.403288099685e-02       1.880371586686e+04 
       3.418921537871e-02       1.872416452857e+04 
       3.434617459368e-02       1.864463515737e+04 
       3.450377608250e-02       1.856512453132e+04 
       3.466203789320e-02       1.848573769336e+04 
       3.482097870813e-02       1.840628964848e+04 
       3.498061787254e-02       1.832687507640e+04 
       3.514097542474e-02       1.824749876511e+04 
       3.530207212799e-02       1.816815787973e+04 
       3.546392950423e-02       1.808885829498e+04 
       3.562656986982e-02       1.800960545750e+04 
       3.579001637333e-02       1.793039438898e+04 
       3.595429303569e-02       1.785123178332e+04 
       3.611942479263e-02       1.777212092936e+04 
       3.628543753991e-02       1.769305639281e+04 
       3.645235818115e-02       1.761404581347e+04 
       3.662021467885e-02       1.753508727775e+04 
       3.678903610853e-02       1.745622971343e+04 
       3.695885271640e-02       1.737738144830e+04 
       3.712969598079e-02       1.729858838421e+04 
       3.730159867767e-02       1.721985470538e+04 
       3.747459495046e-02       1.714117402333e+04 
       3.764872038465e-02       1.706254909502e+04 
       3.782401208755e-02       1.698398316127e+04 
       3.800050877352e-02       1.690546800079e+04 
       3.817825085528e-02       1.682700911786e+04 
       3.835728054169e-02       1.674860149668e+04 
       3.853764194269e-02       1.667025085507e+04 
       3.871938118186e-02       1.659194292780e+04 
       3.890254651747e-02       1.651377147584e+04 
       3.908718847265e-02       1.643556750203e+04 
       3.927335997549e-02       1.635740532166e+04 
       3.946111651015e-02       1.627928621329e+04 
       3.965051627987e-02       1.620120910421e+04 
       3.984162038307e-02       1.612316409963e+04 
       4.003449300381e-02       1.604515330563e+04 
       4.022920161800e-02       1.596717034995e+04 
       4.042581721700e-02       1.588921541977e+04 
       4.062441455031e-02       1.581127693453e+04 
       4.082507238935e-02       1.573335604031e+04 
       4.102787381451e-02       1.565548335972e+04 
       4.123290652807e-02       1.557757511313e+04 
       4.144026319561e-02       1.549966746008e+04 
       4.165004181926e-02       1.542175196464e+04 
       4.186234614619e-02       1.534381757454e+04 
       4.207728611648e-02       1.526586580175e+04 
       4.229497835494e-02       1.518787841556e+04 
       4.251554671205e-02       1.510985301994e+04 
       4.273912285997e-02       1.503177759080e+04 
       4.296584695037e-02       1.495364710333e+04 
       4.319586834194e-02       1.487544314916e+04 
       4.342934640630e-02       1.479723261125e+04 
       4.366645142273e-02       1.471886101576e+04 
       4.390736557332e-02       1.464038114227e+04 
       4.415228405242e-02       1.456178591846e+04 
       4.440141630593e-02       1.448305332507e+04 
       4.465498741914e-02       1.440417212086e+04 
       4.491323967421e-02       1.432512542772e+04 
       4.517643430273e-02       1.424589395041e+04 
       4.544485346250e-02       1.416645691775e+04 
       4.571880247334e-02       1.408679720228e+04 
       4.599861235286e-02       1.400692131828e+04 
       4.628464270055e-02       1.392674171649e+04 
       4.657728498806e-02       1.384626001602e+04 
       4.687696632435e-02       1.376545067504e+04 
       4.718415377846e-02       1.368428431043e+04 
       4.749935935892e-02       1.360272201728e+04 
       4.782314577002e-02       1.352073188811e+04 
       4.815613309013e-02       1.343826747970e+04 
       4.849900654947e-02       1.335528791527e+04 
       4.885252562388e-02       1.327181092290e+04 
       4.921753471095e-02       1.318764762745e+04 
       4.959497571697e-02       1.310279986291e+04 
       4.998590296189e-02       1.301720082144e+04 
       5.039150090894e-02       1.293077678445e+04 
       5.081310535198e-02       1.284343334666e+04 
       5.125222885493e-02       1.275507750561e+04 
       5.171059144255e-02       1.266562505411e+04 
       5.219015780368e-02       1.257487766162e+04 
       5.269318260022e-02       1.248271553806e+04 
       5.322226589531e-02       1.238895525887e+04 
       5.378042123738e-02       1.229338486917e+04 
       5.437115957728e-02       1.219574319066e+04 
       5.499859294717e-02       1.209578086533e+04 
       5.566756265220e-02       1.199298279639e+04 
       5.638379748869e-02       1.188692817463e+04 
       5.715410789806e-02       1.177700688620e+04 
       5.798662132722e-02       1.166243683371e+04 
       5.889106103984e-02       1.154223539870e+04 
       5.987906259964e-02       1.141500184976e+04 
       6.096450448676e-02       1.127899119933e+04 
