# dimensionless total lensed [l(l+1)/2pi] C_l's
# for l=2 to 2600, i.e. number of multipoles equal to 2599
#
# -> if you prefer output in CAMB/HealPix/LensPix units/order, set 'format' to 'camb' in input file
# -> if you don't want to see such a header, set 'headers' to 'no' in input file
# -> for CMB lensing (phi), these are C_l^phi-phi for the lensing potential.
#    Remember the conversion factors:
#    C_l^dd (deflection) = l(l+1) C_l^phi-phi
#    C_l^gg (shear/convergence) = 1/4 (l(l+1))^2 C_l^phi-phi
#
# 1:l     2:TT                     3:EE                     4:TE                     5:BB                     6:phiphi                 7:TPhi                   8:Ephi               
    2       1.515973962747e-10       7.107961352591e-15       4.686886577225e-13       2.055060350934e-19       7.958535969064e-09       5.016543576666e-10      -2.442371689499e-12 
    3       1.430610286398e-10       1.205395906826e-14       5.907817606978e-13       4.111325680304e-19       4.928579768068e-09       3.626712757998e-10      -2.150496878682e-12 
    4       1.344712603553e-10       1.407145702412e-14       6.104812857238e-13       6.854864215418e-19       3.414504648873e-09       2.788235577903e-10      -1.716662975586e-12 
    5       1.275536544644e-10       1.299936463920e-14       5.708957846557e-13       1.028721904721e-18       2.538150685061e-09       2.232214465978e-10      -1.274136537126e-12 
    6       1.224527082853e-10       1.000540433647e-14       5.013796879933e-13       1.441026526378e-18       1.975235982163e-09       1.838211873137e-10      -8.696786952290e-13 
    7       1.189144987965e-10       6.597874337027e-15       4.217297224546e-13       1.922617569511e-18       1.587472105120e-09       1.545910320860e-10      -5.275165891873e-13 
    8       1.164020078529e-10       3.860775774188e-15       3.440022779957e-13       2.473738137465e-18       1.307130768977e-09       1.321422441486e-10      -2.584195016983e-13 
    9       1.147687871163e-10       2.195674675838e-15       2.750598983581e-13       3.094652753755e-18       1.097306815264e-09       1.144861142801e-10      -6.406032045089e-14 
   10       1.139963831386e-10       1.453057163718e-15       2.190094143505e-13       3.785642608138e-18       9.358742947183e-10       1.004067869744e-10       6.068780049549e-14 
   11       1.137533759219e-10       1.238093876033e-15       1.776707797196e-13       4.547000550616e-18       7.912959596802e-10       8.917137826082e-11       1.249143844025e-13 
   12       1.138967252538e-10       1.187427214677e-15       1.504222277735e-13       5.379025942366e-18       6.905826320764e-10       7.968468663978e-11       1.432656368970e-13 
   13       1.143880534604e-10       1.106513723517e-15       1.358329096346e-13       6.282019477909e-18       6.078445095695e-10       7.170818597406e-11       1.288014370434e-13 
   14       1.150956276564e-10       9.662625232636e-16       1.315960474274e-13       7.256278095801e-18       5.391621148925e-10       6.486753747782e-11       9.434590732125e-14 
   15       1.159798267628e-10       8.242704565484e-16       1.344746746500e-13       8.302090095679e-18       4.814519528912e-10       5.911623082275e-11       5.203259858284e-14 
   16       1.171405339485e-10       7.399462894433e-16       1.417412391245e-13       9.419730577236e-18       4.324370966641e-10       5.421589440069e-11       1.068135157623e-14 
   17       1.184513430725e-10       7.291587180229e-16       1.509953263484e-13       1.060945731169e-17       3.904494828057e-10       4.995461697911e-11      -2.367187042397e-14 
   18       1.198261384717e-10       7.647555139501e-16       1.602936558658e-13       1.187150699585e-17       3.540256437886e-10       4.612010584737e-11      -4.765933218873e-14 
   19       1.212972514075e-10       8.154988636303e-16       1.687514896368e-13       1.320609304762e-17       3.225967961372e-10       4.269657162714e-11      -6.029966905948e-14 
   20       1.228649583681e-10       8.497763552769e-16       1.757719066420e-13       1.461340157257e-17       2.949845503059e-10       3.965275729780e-11      -6.222181887251e-14 
   21       1.245191678012e-10       8.703717664434e-16       1.814055420271e-13       1.609359262600e-17       2.707108423514e-10       3.696016141059e-11      -5.554152864610e-14 
   22       1.262191762029e-10       8.946654071247e-16       1.860215332092e-13       1.764679595458e-17       2.491312837587e-10       3.454418990260e-11      -4.364268195951e-14 
   23       1.279936564665e-10       9.420327772242e-16       1.901031777782e-13       1.927311546537e-17       2.299789522909e-10       3.236042086116e-11      -2.948825093237e-14 
   24       1.298607843253e-10       1.031120006326e-15       1.942129629923e-13       2.097262488514e-17       2.128642789876e-10       3.034947509757e-11      -1.618239163982e-14 
   25       1.317705584405e-10       1.161226305441e-15       1.986982941218e-13       2.274537653301e-17       1.975609019638e-10       2.849910667634e-11      -5.550553644309e-15 
   26       1.336498154028e-10       1.324103527270e-15       2.038255159350e-13       2.459139553378e-17       1.837445190002e-10       2.679854592585e-11       1.115176303327e-15 
   27       1.355522044418e-10       1.513995862891e-15       2.097093798213e-13       2.651068978416e-17       1.712518594512e-10       2.525588821471e-11       3.739088762110e-15 
   28       1.375526120409e-10       1.725706640045e-15       2.163338032751e-13       2.850324678809e-17       1.598845170548e-10       2.387125593924e-11       2.831242781424e-15 
   29       1.396425924242e-10       1.958761631809e-15       2.233859877550e-13       3.056905487991e-17       1.495855574396e-10       2.262847879240e-11      -8.415966637627e-16 
   30       1.417656719798e-10       2.214007021463e-15       2.303547050661e-13       3.270808688447e-17       1.402397934336e-10       2.148924860341e-11      -6.164148702540e-15 
   31       1.438575233747e-10       2.491697046332e-15       2.366588991576e-13       3.492030301403e-17       1.316515609503e-10       2.040643789728e-11      -1.181029999646e-14 
   32       1.459397237525e-10       2.789750860164e-15       2.419718069769e-13       3.720568568240e-17       1.237758918197e-10       1.938232705430e-11      -1.689906436683e-14 
   33       1.480592083082e-10       3.104746873800e-15       2.460094922196e-13       3.956421814104e-17       1.165578665983e-10       1.843049959850e-11      -2.055702851913e-14 
   34       1.502531665762e-10       3.433769987172e-15       2.484993642169e-13       4.199588483460e-17       1.098969963259e-10       1.755824491025e-11      -2.198692982692e-14 
   35       1.525129241793e-10       3.779499119065e-15       2.493716645324e-13       4.450070216193e-17       1.037583089660e-10       1.675975063031e-11      -2.133402780572e-14 
   36       1.548053262027e-10       4.146968545507e-15       2.486370106447e-13       4.707870039463e-17       9.809097608466e-11       1.601929308911e-11      -1.913479684230e-14 
   37       1.570937626504e-10       4.541351196559e-15       2.463445120946e-13       4.972992361711e-17       9.281959495970e-11       1.531820360688e-11      -1.602225503157e-14 
   38       1.593827859959e-10       4.964685616875e-15       2.426023141246e-13       5.245445272378e-17       8.793032265958e-11       1.465527276788e-11      -1.245242514500e-14 
   39       1.616869421218e-10       5.418107873593e-15       2.375687225048e-13       5.525239291209e-17       8.340784536034e-11       1.403234096881e-11      -8.902301380510e-15 
   40       1.640183423358e-10       5.902722160058e-15       2.314506032601e-13       5.812386995523e-17       7.920923422993e-11       1.344849796325e-11      -5.951218669604e-15 
   41       1.663854899407e-10       6.419431702574e-15       2.244438752737e-13       6.106903145737e-17       7.527887342751e-11       1.290087141040e-11      -4.137085553881e-15 
   42       1.687902106796e-10       6.968376297855e-15       2.165244122285e-13       6.408804652733e-17       7.160488111528e-11       1.238793629389e-11      -3.453648005425e-15 
   43       1.712290857893e-10       7.549303959214e-15       2.075941678535e-13       6.718110920785e-17       6.817699968708e-11       1.190683819288e-11      -3.700173935837e-15 
   44       1.736937352166e-10       8.161704018106e-15       1.975365872998e-13       7.034844094572e-17       6.496964794043e-11       1.145224524405e-11      -4.613453846157e-15 
   45       1.761744657586e-10       8.805051173592e-15       1.862230967504e-13       7.359027701589e-17       6.195097619182e-11       1.101813094102e-11      -5.899327009996e-15 
   46       1.786735382859e-10       9.479662076526e-15       1.735379060707e-13       7.690681656017e-17       5.911612879729e-11       1.060421011134e-11      -7.348013482985e-15 
   47       1.811951290091e-10       1.018606781095e-14       1.593584410221e-13       8.029826078373e-17       5.646185485063e-11       1.021110076706e-11      -8.746394013749e-15 
   48       1.837413983510e-10       1.092477530234e-14       1.435474032788e-13       8.376482804876e-17       5.397648929314e-11       9.838440474995e-12      -9.843502185878e-15 
   49       1.863122922430e-10       1.169626640347e-14       1.259519363252e-13       8.730675484979e-17       5.163932705263e-11       9.484808266811e-12      -1.034853514548e-14 
   50       1.889066084757e-10       1.250094522688e-14       1.064445747567e-13       9.092427023383e-17       4.942685843962e-11       9.148314860844e-12      -1.002265511210e-14 
   51       1.915259979766e-10       1.333896540978e-14       8.506113107725e-14       9.461750861268e-17       4.733492266008e-11       8.828743367392e-12      -8.988385506888e-15 
   52       1.941717061631e-10       1.421035438195e-14       6.189879491632e-14       9.838657497032e-17       4.536148578423e-11       8.525854670433e-12      -7.500758326646e-15 
   53       1.968432669442e-10       1.511505775092e-14       3.707872615832e-14       1.022315690819e-16       4.350000926759e-11       8.238724368287e-12      -5.863230350448e-15 
   54       1.995383635490e-10       1.605293595235e-14       1.074718711753e-14       1.061525852392e-16       4.173914697264e-11       7.965696133640e-12      -4.430107551129e-15 
   55       2.022542777328e-10       1.702385462806e-14      -1.696095965768e-14       1.101496903390e-16       4.006619598719e-11       7.704902120959e-12      -3.523082213434e-15 
   56       2.049929778117e-10       1.802798972573e-14      -4.604497050263e-14       1.142228524016e-16       3.847914704925e-11       7.456082427926e-12      -3.151010071058e-15 
   57       2.077570508353e-10       1.906559232537e-14      -7.654400448873e-14       1.183719938142e-16       3.697709701618e-11       7.219135933704e-12      -3.224766341729e-15 
   58       2.105481493466e-10       2.013690184772e-14      -1.085024868835e-13       1.225970103194e-16       3.555660403236e-11       6.993568839496e-12      -3.636132138152e-15 
   59       2.133669140950e-10       2.124214635636e-14      -1.419704432497e-13       1.268977698981e-16       3.421153080277e-11       6.778470121326e-12      -4.256872621314e-15 
   60       2.162128967500e-10       2.238154285976e-14      -1.770038335452e-13       1.312741116516e-16       3.293288786652e-11       6.572486982816e-12      -4.937815153788e-15 
   61       2.190853128331e-10       2.355520782014e-14      -2.136544165901e-13       1.357258561077e-16       3.171132634167e-11       6.374218355610e-12      -5.540093390415e-15 
   62       2.219856728492e-10       2.476286452323e-14      -2.519359291408e-13       1.402528413672e-16       3.054562455574e-11       6.183554146923e-12      -6.039160210904e-15 
   63       2.249156072816e-10       2.600407026167e-14      -2.918508736627e-13       1.448548931250e-16       2.943583688586e-11       6.000594409061e-12      -6.442592023973e-15 
   64       2.278760385534e-10       2.727829783565e-14      -3.334003199438e-13       1.495318132228e-16       2.838074115929e-11       5.825246758639e-12      -6.760079795907e-15 
   65       2.308671300819e-10       2.858493300600e-14      -3.765839070007e-13       1.542833788946e-16       2.737776599265e-11       5.657215093695e-12      -7.003527804725e-15 
   66       2.338882353351e-10       2.992327194715e-14      -4.213998449843e-13       1.591093420117e-16       2.642291813117e-11       5.495988310804e-12      -7.187152394360e-15 
   67       2.369378468865e-10       3.129251870019e-14      -4.678449170854e-13       1.640094283275e-16       2.551070978799e-11       5.340829022193e-12      -7.327580728828e-15 
   68       2.400144209886e-10       3.269188608759e-14      -5.159137765552e-13       1.689833927526e-16       2.463562281015e-11       5.190992044203e-12      -7.441311443195e-15 
   69       2.431191591841e-10       3.412092789519e-14      -5.655966680966e-13       1.740311998716e-16       2.379700810458e-11       5.046456492301e-12      -7.536278357949e-15 
   70       2.462537013931e-10       3.557926973279e-14      -6.168812460694e-13       1.791528788159e-16       2.299505299523e-11       4.907322440306e-12      -7.618746903213e-15 
   71       2.494192722243e-10       3.706651162525e-14      -6.697532226909e-13       1.843484711358e-16       2.222929947692e-11       4.773588964793e-12      -7.695831696451e-15 
   72       2.526166524225e-10       3.858222811155e-14      -7.241963519146e-13       1.896180314787e-16       2.149861085960e-11       4.645148738716e-12      -7.775527825970e-15 
   73       2.558461503158e-10       4.012596834392e-14      -7.801924133079e-13       1.949616282670e-16       2.080113841266e-11       4.521782625029e-12      -7.866742134422e-15 
   74       2.591075732627e-10       4.169725618695e-14      -8.377211959300e-13       2.003793443765e-16       2.013428800921e-11       4.403154270300e-12      -7.979324502313e-15 
   75       2.624001991000e-10       4.329559031667e-14      -8.967604822104e-13       2.058712778141e-16       1.949468677036e-11       4.288804698338e-12      -8.124099131498e-15 
   76       2.657232233124e-10       4.492031651825e-14      -9.572833784499e-13       2.114375698590e-16       1.887902007410e-11       4.178275925708e-12      -8.309415046279e-15 
   77       2.690772578021e-10       4.657021747528e-14      -1.019249779965e-12       2.170784939109e-16       1.828679252798e-11       4.071519783562e-12      -8.530002233366e-15 
   78       2.724630548227e-10       4.824384800909e-14      -1.082613313048e-12       2.227943841509e-16       1.771801221168e-11       3.968554170503e-12      -8.776130759780e-15 
   79       2.758810370088e-10       4.993965376325e-14      -1.147323780886e-12       2.285856107368e-16       1.717234972050e-11       3.869337928345e-12      -9.036871832252e-15 
   80       2.793312785781e-10       5.165596868198e-14      -1.213327093025e-12       2.344525810444e-16       1.664912265723e-11       3.773768081433e-12      -9.300057704458e-15 
   81       2.828134865341e-10       5.339101248863e-14      -1.280565194840e-12       2.403957409090e-16       1.614728012393e-11       3.681677075957e-12      -9.552241584262e-15 
   82       2.863269818683e-10       5.514288816406e-14      -1.348975997004e-12       2.464155758661e-16       1.566538721376e-11       3.592830019277e-12      -9.778657540958e-15 
   83       2.898706807628e-10       5.690957942510e-14      -1.418493304953e-12       2.525126123927e-16       1.520160950281e-11       3.506921919233e-12      -9.963180412509e-15 
   84       2.934435418225e-10       5.868915730051e-14      -1.489055266721e-12       2.586873591817e-16       1.475415884293e-11       3.423654807299e-12      -1.009174445544e-14 
   85       2.970460341361e-10       6.048044473013e-14      -1.560631480035e-12       2.649401170589e-16       1.432274962361e-11       3.342989845343e-12      -1.016333828820e-14 
   86       3.006788792556e-10       6.228245803128e-14      -1.633200270577e-12       2.712711396832e-16       1.390735661645e-11       3.264932145572e-12      -1.018076764318e-14 
   87       3.043425960014e-10       6.409420857521e-14      -1.706740644734e-12       2.776806909420e-16       1.350776749799e-11       3.189453205475e-12      -1.014737645695e-14 
   88       3.080374894973e-10       6.591470377980e-14      -1.781232362235e-12       2.841690451844e-16       1.312357509448e-11       3.116489489719e-12      -1.006706490766e-14 
   89       3.117636402048e-10       6.774294810221e-14      -1.856656008785e-12       2.907364874548e-16       1.275416962666e-11       3.045941012061e-12      -9.944307452372e-15 
   90       3.155208929582e-10       6.957794403155e-14      -1.932993068695e-12       2.973833137260e-16       1.239873095452e-11       2.977669917245e-12      -9.784170864444e-15 
   91       3.193088459998e-10       7.141869308161e-14      -2.010225997519e-12       3.041098311326e-16       1.205622082210e-11       2.911499062909e-12      -9.592332270905e-15 
   92       3.231268400141e-10       7.326419678344e-14      -2.088338294691e-12       3.109163582045e-16       1.172537510225e-11       2.847210601490e-12      -9.375097189818e-15 
   93       3.269742207607e-10       7.511336266205e-14      -2.167306679841e-12       3.178032000854e-16       1.140500369730e-11       2.784601678128e-12      -9.138675170817e-15 
   94       3.308511959731e-10       7.696470383396e-14      -2.247076117997e-12       3.247705694188e-16       1.109495868151e-11       2.723664186998e-12      -8.886842917800e-15 
   95       3.347580876634e-10       7.881659585416e-14      -2.327581154986e-12       3.318186539393e-16       1.079529810622e-11       2.664429554225e-12      -8.622961413622e-15 
   96       3.386950628955e-10       8.066736739918e-14      -2.408753443787e-12       3.389476403187e-16       1.050598783323e-11       2.606913405205e-12      -8.350694742029e-15 
   97       3.426621265747e-10       8.251529995541e-14      -2.490521708771e-12       3.461577140556e-16       1.022689800269e-11       2.551114930528e-12      -8.074017934269e-15 
   98       3.466591142390e-10       8.435862750753e-14      -2.572811709947e-12       3.534490593659e-16       9.957799501071e-12       2.497016251911e-12      -7.797224815698e-15 
   99       3.506856848488e-10       8.619553622693e-14      -2.655546207198e-12       3.608218590723e-16       9.698360429029e-12       2.444581788117e-12      -7.524935852396e-15 
  100       3.547413135782e-10       8.802416416012e-14      -2.738644924533e-12       3.682762944945e-16       9.448142569365e-12       2.393757620882e-12      -7.262105997771e-15 
  101       3.588252846045e-10       8.984260091712e-14      -2.822024514321e-12       3.758125453391e-16       9.206597854927e-12       2.344470860845e-12      -7.014032539172e-15 
  102       3.629366838994e-10       9.164888735984e-14      -2.905598521540e-12       3.834307895896e-16       8.973064836529e-12       2.296629013467e-12      -6.786362944498e-15 
  103       3.670743920191e-10       9.344101529055e-14      -2.989277348017e-12       3.911312033966e-16       8.746765150871e-12       2.250119344963e-12      -6.585102708808e-15 
  104       3.712373302402e-10       9.521702371842e-14      -3.072974461924e-12       3.989140414352e-16       8.526980021348e-12       2.204835668063e-12      -6.415202109358e-15 
  105       3.754252523625e-10       9.697530314064e-14      -3.156626058593e-12       4.067798905780e-16       8.313614521997e-12       2.160764185885e-12      -6.276082148014e-15 
  106       3.796380469245e-10       9.871433197572e-14      -3.240174001294e-12       4.147294504445e-16       8.106703307419e-12       2.117908116211e-12      -6.165516043634e-15 
  107       3.838754890374e-10       1.004325843965e-13      -3.323559845621e-12       4.227634567578e-16       7.906235851617e-12       2.076260978429e-12      -6.080988677310e-15 
