# dimensionless total lensed [l(l+1)/2pi] C_l's
# for l=2 to 2600, i.e. number of multipoles equal to 2599
#
# -> if you prefer output in CAMB/HealPix/LensPix units/order, set 'format' to 'camb' in input file
# -> if you don't want to see such a header, set 'headers' to 'no' in input file
# -> for CMB lensing (phi), these are C_l^phi-phi for the lensing potential.
#    Remember the conversion factors:
#    C_l^dd (deflection) = l(l+1) C_l^phi-phi
#    C_l^gg (shear/convergence) = 1/4 (l(l+1))^2 C_l^phi-phi
#
# 1:l     2:TT                     3:EE                     4:TE                     5:BB                     6:phiphi                 7:TPhi                   8:Ephi               
    2       1.447963810409e-10       4.708803020376e-15       3.811215010157e-13       2.512410973158e-19       8.604940259579e-09       4.760490387885e-10      -2.003878961987e-12 
    3       1.369547519497e-10       6.418023733932e-15       4.399710124925e-13       5.025520386060e-19       5.329394495433e-09       3.381508549769e-10      -1.571330330911e-12 
    4       1.294866317977e-10       5.939131865708e-15       4.221017877963e-13       8.377420758393e-19       3.710202520047e-09       2.563416355369e-10      -1.079570479024e-12 
    5       1.238340956157e-10       4.272292217694e-15       3.693877518398e-13       1.256904650786e-18       2.769066170311e-09       2.026381357877e-10      -6.480610161096e-13 
    6       1.199048132260e-10       2.574749650904e-15       3.065296338379e-13       1.760156682312e-18       2.162903145621e-09       1.649632086569e-10      -3.132794807888e-13 
    7       1.173172573432e-10       1.454377998219e-15       2.483657412335e-13       2.347638446336e-18       1.745641394147e-09       1.373070435683e-10      -8.330824072100e-14 
    8       1.157614753065e-10       9.283832832347e-16       2.020241895958e-13       3.019513250432e-18       1.443447526403e-09       1.163172852556e-10       5.047857860227e-14 
    9       1.149768941937e-10       7.402683242671e-16       1.698783634429e-13       3.775966824090e-18       1.216084536623e-09       9.998611309549e-11       1.063763457482e-13 
   10       1.147450975408e-10       6.561989465939e-16       1.513750307439e-13       4.617206347621e-18       1.040033444211e-09       8.702310684048e-11       1.073030157811e-13 
   11       1.149695096597e-10       5.800526262999e-16       1.442399582157e-13       5.543459050175e-18       8.763467616494e-10       7.684014423270e-11       7.667569788187e-14 
   12       1.155258206710e-10       5.174365764002e-16       1.454260817308e-13       6.554970320150e-18       7.659266953043e-10       6.798643862369e-11       3.409894623489e-14 
   13       1.163399176976e-10       4.961791617701e-16       1.519284584454e-13       7.652001288928e-18       6.752596332326e-10       6.077139783282e-11      -5.340029655580e-15 
   14       1.173390994132e-10       5.218428042181e-16       1.612497594235e-13       8.834825870722e-18       5.998052473313e-10       5.447206362171e-11      -3.374931493934e-14 
   15       1.185275555475e-10       5.804198594597e-16       1.716367087900e-13       1.010372726634e-17       5.362780307916e-10       4.918322423514e-11      -4.763422142534e-14 
   16       1.198534160925e-10       6.590618299693e-16       1.820384904954e-13       1.145899396573e-17       4.822535304363e-10       4.465046692239e-11      -4.847544458643e-14 
   17       1.212953617522e-10       7.573815851263e-16       1.919070634412e-13       1.290091531196e-17       4.359001443340e-10       4.070618864883e-11      -4.035227893963e-14 
   18       1.228164436824e-10       8.839433533713e-16       2.012909288240e-13       1.442977700263e-17       3.956597427796e-10       3.722526997918e-11      -2.847342823270e-14 
   19       1.244279924389e-10       1.043587172550e-15       2.104571512361e-13       1.604585464041e-17       3.608970671435e-10       3.417622786053e-11      -1.666864084301e-14 
   20       1.261036875480e-10       1.238181742023e-15       2.197059056751e-13       1.774941162778e-17       3.302741042391e-10       3.148396534263e-11      -8.519908305532e-15 
   21       1.278524332926e-10       1.465719491794e-15       2.291494699476e-13       1.954069050133e-17       3.033115602886e-10       2.910389465111e-11      -5.024911515804e-15 
   22       1.296611765986e-10       1.722424244383e-15       2.387782384572e-13       2.141991115240e-17       2.793662021963e-10       2.696322708462e-11      -5.933651973483e-15 
   23       1.315263291838e-10       2.008390527723e-15       2.483944921008e-13       2.338726390888e-17       2.581100101044e-10       2.503752376136e-11      -9.976909004623e-15 
   24       1.334278406820e-10       2.324579435803e-15       2.576691207868e-13       2.544290766232e-17       2.390527398526e-10       2.329688769260e-11      -1.523458722734e-14 
   25       1.353790127132e-10       2.670773358247e-15       2.662293229543e-13       2.758696574803e-17       2.219710678000e-10       2.173683331714e-11      -2.010787761124e-14 
   26       1.373845337649e-10       3.046342966720e-15       2.736611318751e-13       2.981952332632e-17       2.065566377680e-10       2.034213368268e-11      -2.310793991148e-14 
   27       1.394301471095e-10       3.451860626351e-15       2.796907250450e-13       3.214062611357e-17       1.926250689334e-10       1.908208887269e-11      -2.386832283162e-14 
   28       1.414878747774e-10       3.888445408793e-15       2.841160977433e-13       3.455027899156e-17       1.799366812671e-10       1.791471058594e-11      -2.252601747695e-14 
   29       1.435681295982e-10       4.358034975800e-15       2.869447792222e-13       3.704845515520e-17       1.684270357432e-10       1.683838858979e-11      -1.972822258658e-14 
   30       1.456828185638e-10       4.863057040079e-15       2.882875406007e-13       3.963508491800e-17       1.579729216995e-10       1.585610947947e-11      -1.648714558284e-14 
   31       1.478328934330e-10       5.405904254850e-15       2.882826972111e-13       4.231005818861e-17       1.483615498177e-10       1.496193195461e-11      -1.389056474043e-14 
   32       1.500207311787e-10       5.987533689441e-15       2.869799000823e-13       4.507325300045e-17       1.395435218449e-10       1.414711379748e-11      -1.226765293850e-14 
   33       1.522395508977e-10       6.608331262836e-15       2.844155582875e-13       4.792451374072e-17       1.314566826974e-10       1.339442416805e-11      -1.171625730617e-14 
   34       1.544758716994e-10       7.268573158278e-15       2.806145718037e-13       5.086365327302e-17       1.239881067226e-10       1.268298703138e-11      -1.223395014171e-14 
   35       1.567346839350e-10       7.968829102933e-15       2.754893318567e-13       5.389049327001e-17       1.170997272182e-10       1.201425209473e-11      -1.343372419449e-14 
   36       1.590213364359e-10       8.709687188036e-15       2.689030970240e-13       5.700483590545e-17       1.107364434985e-10       1.139428896362e-11      -1.471439272050e-14 
   37       1.613361579994e-10       9.491661893702e-15       2.607144820188e-13       6.020646971939e-17       1.048156265375e-10       1.082609604112e-11      -1.547598219234e-14 
   38       1.636816399194e-10       1.031525911218e-14       2.508459341198e-13       6.349522940541e-17       9.932208137245e-11       1.030768836082e-11      -1.563800998247e-14 
   39       1.660563988398e-10       1.118092640701e-14       2.392362689757e-13       6.687095583139e-17       9.423846908922e-11       9.832827791408e-12      -1.528887449883e-14 
   40       1.684524086673e-10       1.208903165194e-14       2.258218770674e-13       7.033348073120e-17       8.951641758192e-11       9.391099815971e-12      -1.455011027053e-14 
   41       1.708594743570e-10       1.303985250504e-14       2.105552322724e-13       7.388264482782e-17       8.509339568457e-11       8.971112016577e-12      -1.357077480398e-14 
   42       1.732819923476e-10       1.403354817400e-14       1.934685066423e-13       7.751835795639e-17       8.095645115147e-11       8.572158239372e-12      -1.250272377241e-14 
   43       1.757265346794e-10       1.507017323355e-14       1.746300743630e-13       8.124055945262e-17       7.709466407595e-11       8.195779853586e-12      -1.152126944882e-14 
   44       1.781968839096e-10       1.614968070399e-14       1.541283687535e-13       8.504920401065e-17       7.348001920284e-11       7.842460717677e-12      -1.083424955676e-14 
   45       1.806946077022e-10       1.727196229420e-14       1.320462855171e-13       8.894426715053e-17       7.007742721522e-11       7.511793343523e-12      -1.062203679289e-14 
   46       1.832217132033e-10       1.843699199789e-14       1.083730474135e-13       9.292575938085e-17       6.688156912334e-11       7.203263702692e-12      -1.083193770557e-14 
   47       1.857782623320e-10       1.964471927662e-14       8.306759287956e-14       9.699371929404e-17       6.388875129175e-11       6.915537132467e-12      -1.132538979908e-14 
   48       1.883613076226e-10       2.089502786671e-14       5.608225598713e-14       1.011482121826e-16       6.108579170595e-11       6.646137046607e-12      -1.193270364312e-14 
   49       1.909646350723e-10       2.218773468945e-14       2.736217999526e-14       1.053893320294e-16       5.844931421877e-11       6.391363693446e-12      -1.245130470786e-14 
   50       1.935816047121e-10       2.352256105755e-14      -3.143734411191e-15       1.097171859869e-16       5.595279501041e-11       6.147347650411e-12      -1.269940427552e-14 
   51       1.962151778960e-10       2.489903960883e-14      -3.544512041194e-14       1.141318382327e-16       5.359159418386e-11       5.913735907017e-12      -1.269826580912e-14 
   52       1.988701673018e-10       2.631658022700e-14      -6.953863186838e-14       1.186333543147e-16       5.136349877473e-11       5.690865895832e-12      -1.253637363328e-14 
   53       2.015502683585e-10       2.777449320091e-14      -1.054186260138e-13       1.232218184674e-16       4.926123153065e-11       5.478691022467e-12      -1.231915802477e-14 
   54       2.042579478691e-10       2.927198683107e-14      -1.430772070919e-13       1.278973347791e-16       4.727210996777e-11       5.276752823037e-12      -1.216984547466e-14 
   55       2.069947217864e-10       3.080824435993e-14      -1.825061668210e-13       1.326599936526e-16       4.538191943504e-11       5.084412909556e-12      -1.219876562882e-14 
   56       2.097623245057e-10       3.238268262556e-14      -2.237032703117e-13       1.375097587627e-16       4.358844008753e-11       4.901680065845e-12      -1.240039534612e-14 
   57       2.125616349627e-10       3.399475347077e-14      -2.666676081427e-13       1.424465540595e-16       4.189068311428e-11       4.728539851612e-12      -1.273222747500e-14 
   58       2.153922188083e-10       3.564387073089e-14      -3.113979513324e-13       1.474702958303e-16       4.028479823319e-11       4.564695481178e-12      -1.314370286507e-14 
   59       2.182522321925e-10       3.732941093090e-14      -3.578928688799e-13       1.525808925136e-16       3.876389692958e-11       4.409550102546e-12      -1.357583166874e-14 
   60       2.211383255491e-10       3.905071398244e-14      -4.061508453061e-13       1.577782445133e-16       3.731787569480e-11       4.262189076472e-12      -1.396081464276e-14 
   61       2.240470806333e-10       4.080700005951e-14      -4.561646037700e-13       1.630622279648e-16       3.593622355525e-11       4.121636943525e-12      -1.423710526640e-14 
   62       2.269799162340e-10       4.259709684530e-14      -5.079023204877e-13       1.684326421971e-16       3.461758094719e-11       3.987735816433e-12      -1.439940354271e-14 
   63       2.299391178757e-10       4.441965202132e-14      -5.613223830772e-13       1.738892500939e-16       3.336202253226e-11       3.860433603515e-12      -1.445926290500e-14 
   64       2.329263551071e-10       4.627320976280e-14      -6.163787479012e-13       1.794317924202e-16       3.216818179153e-11       3.739517891945e-12      -1.443074864368e-14 
   65       2.359426339341e-10       4.815620877616e-14      -6.730208737555e-13       1.850599871261e-16       3.103316895339e-11       3.624606942465e-12      -1.433054913331e-14 
   66       2.389882492529e-10       5.006698033650e-14      -7.311936555576e-13       1.907735286526e-16       2.995248892138e-11       3.515140684095e-12      -1.417808705962e-14 
   67       2.420627372834e-10       5.200374632507e-14      -7.908373580345e-13       1.965720872357e-16       2.891995920203e-11       3.410371708848e-12      -1.399563064655e-14 
   68       2.451654626941e-10       5.396473747373e-14      -8.518954824171e-13       2.024553597428e-16       2.792936206115e-11       3.309561543720e-12      -1.380367962432e-14 
   69       2.482976244494e-10       5.594858030728e-14      -9.143403657356e-13       2.084232356968e-16       2.697997319065e-11       3.212635777784e-12      -1.360578885377e-14 
   70       2.514605728161e-10       5.795398544051e-14      -9.781526733226e-13       2.144756637981e-16       2.607201100437e-11       3.119646113524e-12      -1.340085525280e-14 
   71       2.546551798608e-10       5.997963540037e-14      -1.043314058888e-12       2.206126039821e-16       2.520496448691e-11       3.030573146951e-12      -1.318756151786e-14 
   72       2.578818081155e-10       6.202418573777e-14      -1.109807301100e-12       2.268340280416e-16       2.437755547520e-11       2.945322612380e-12      -1.296436650041e-14 
   73       2.611402792432e-10       6.408626613940e-14      -1.177616440160e-12       2.331399202498e-16       2.358770093998e-11       2.863721627193e-12      -1.272949558332e-14 
   74       2.644298427041e-10       6.616448153962e-14      -1.246726914383e-12       2.395302779829e-16       2.283247526735e-11       2.785514936612e-12      -1.248093105731e-14 
   75       2.677491444207e-10       6.825741323223e-14      -1.317125696776e-12       2.460051123426e-16       2.210807254025e-11       2.710361158468e-12      -1.221640249740e-14 
   76       2.710968505250e-10       7.036356678875e-14      -1.388793934539e-12       2.525645049018e-16       2.141075178025e-11       2.637919791087e-12      -1.193465087977e-14 
   77       2.744737191793e-10       7.248120239101e-14      -1.461683016070e-12       2.592087885081e-16       2.073995504862e-11       2.568138855422e-12      -1.163950833562e-14 
   78       2.778808513890e-10       7.460847543508e-14      -1.535734367525e-12       2.659384007353e-16       2.009569206087e-11       2.501013127051e-12      -1.133654833249e-14 
   79       2.813190518266e-10       7.674348700081e-14      -1.610886545838e-12       2.727538324305e-16       1.947759039139e-11       2.436496162956e-12      -1.103189416229e-14 
   80       2.847888109306e-10       7.888428387286e-14      -1.687075221572e-12       2.796556294882e-16       1.888487791137e-11       2.374498407458e-12      -1.073223543680e-14 
   81       2.882902870038e-10       8.102885856174e-14      -1.764233161758e-12       2.866443946235e-16       1.831636522669e-11       2.314885298164e-12      -1.044484458318e-14 
   82       2.918232883125e-10       8.317514932491e-14      -1.842290212747e-12       2.937207891461e-16       1.777042811588e-11       2.257475371902e-12      -1.017759333949e-14 
   83       2.953872551848e-10       8.532104018775e-14      -1.921173283048e-12       3.008855347333e-16       1.724498996797e-11       2.202038370670e-12      -9.938969250149e-15 
   84       2.989815830289e-10       8.746442443386e-14      -2.000810791433e-12       3.081393554924e-16       1.673802674469e-11       2.148352652566e-12      -9.735932715905e-15 
   85       3.026066921261e-10       8.960340712290e-14      -2.081146896091e-12       3.154827892236e-16       1.624921651937e-11       2.096392508907e-12      -9.567043829503e-15 
   86       3.062631031905e-10       9.173613634059e-14      -2.162129603878e-12       3.229163479749e-16       1.577853246889e-11       2.046168572040e-12      -9.428221060884e-15 
   87       3.099511002254e-10       9.386074378631e-14      -2.243706571834e-12       3.304405757302e-16       1.532573601226e-11       1.997670387226e-12      -9.314779889001e-15 
   88       3.136707183520e-10       9.597534586085e-14      -2.325825165068e-12       3.380560491797e-16       1.489036803047e-11       1.950865515297e-12      -9.221413004122e-15 
   89       3.174217316378e-10       9.807804475420e-14      -2.408432514657e-12       3.457633784900e-16       1.447174008635e-11       1.905698635326e-12      -9.142170510135e-15 
   90       3.212036409251e-10       1.001669295333e-13      -2.491475575530e-12       3.535632080739e-16       1.406892564439e-11       1.862090647285e-12      -9.070440126846e-15 
   91       3.250156616593e-10       1.022400772297e-13      -2.574901184365e-12       3.614562173605e-16       1.368075129056e-11       1.819937774717e-12      -8.998927392285e-15 
   92       3.288567117175e-10       1.042955539276e-13      -2.658656117473e-12       3.694431215652e-16       1.330578795217e-11       1.779110667388e-12      -8.919635865005e-15 
   93       3.327257468878e-10       1.063314251261e-13      -2.742685436331e-12       3.775245995008e-16       1.294269012787e-11       1.739486788986e-12      -8.825635630969e-15 
   94       3.366228514619e-10       1.083457862478e-13      -2.826927113765e-12       3.857010629177e-16       1.259129101069e-11       1.701055101299e-12      -8.716716084894e-15 
   95       3.405482899270e-10       1.103367387512e-13      -2.911316702816e-12       3.939728537347e-16       1.225165660432e-11       1.663825538714e-12      -8.594550679590e-15 
   96       3.445021666293e-10       1.123023824637e-13      -2.995789011018e-12       4.023403136784e-16       1.192374843919e-11       1.627796691529e-12      -8.460989060381e-15 
   97       3.484844183750e-10       1.142408167965e-13      -3.080278134781e-12       4.108037840524e-16       1.160741956938e-11       1.592955365510e-12      -8.318061815175e-15 
   98       3.524948070306e-10       1.161501419599e-13      -3.164717493780e-12       4.193636055051e-16       1.130241056952e-11       1.559276141459e-12      -8.167985224526e-15 
   99       3.565329121234e-10       1.180284601781e-13      -3.249039865341e-12       4.280201177985e-16       1.100834553172e-11       1.526720934767e-12      -8.013166011701e-15 
  100       3.605981234425e-10       1.198738769042e-13      -3.333177418823e-12       4.367736595771e-16       1.072472806249e-11       1.495238554983e-12      -7.856206092748e-15 
  101       3.646896336389e-10       1.216845020359e-13      -3.417061750008e-12       4.456245681358e-16       1.045093727961e-11       1.464764265374e-12      -7.699907326559e-15 
  102       3.688064308264e-10       1.234584511299e-13      -3.500623915483e-12       4.545731791889e-16       1.018622380912e-11       1.435219342487e-12      -7.547276264937e-15 
  103       3.729472911821e-10       1.251938466171e-13      -3.583794467030e-12       4.636198266384e-16       9.929705782147e-12       1.406510635707e-12      -7.401528902664e-15 
  104       3.771110400917e-10       1.268888535547e-13      -3.666503874307e-12       4.727649368149e-16       9.680568835914e-12       1.378552171620e-12      -7.265403660723e-15 
  105       3.812973916991e-10       1.285417897634e-13      -3.748683783877e-12       4.820093261958e-16       9.438705507902e-12       1.351334239458e-12      -7.138984410185e-15 
  106       3.855062095007e-10       1.301510329027e-13      -3.830265995151e-12       4.913539436602e-16       9.204155153689e-12       1.324862860431e-12      -7.021590857044e-15 
  107       3.897372435340e-10       1.317149888378e-13      -3.911182125465e-12       5.007997804052e-16       8.976905915865e-12       1.299138380508e-12      -6.912441230968e-15 
