# Matter power spectrum P(k) at redshift z=3
# for k=1.0432e-05 to 1.4771 h/Mpc,
# number of wavenumbers equal to 615
#    1:k (h/Mpc)              2:P (Mpc/h)^3        
       1.043203858107e-05       5.012919966827e+00 
       2.327158732069e-05       1.089304933401e+01 
       3.615604126896e-05       1.668171476128e+01 
       4.911984425967e-05       2.243654885176e+01 
       6.219800656879e-05       2.819104017966e+01 
       7.542641509540e-05       3.397070095086e+01 
       8.884215340474e-05       3.979761639756e+01 
       1.024838358647e-04       4.569231806640e+01 
       1.163919601397e-04       5.167475155820e+01 
       1.306092823387e-04       5.776486902460e+01 
       1.451812191225e-04       6.398304622095e+01 
       1.601562810179e-04       7.035041188149e+01 
       1.755865410182e-04       7.688913254719e+01 
       1.915281421935e-04       8.362267588511e+01 
       2.080418474053e-04       9.057606548426e+01 
       2.251936331822e-04       9.777613448708e+01 
       2.430553282180e-04       1.052517817909e+02 
       2.617052945722e-04       1.130342317610e+02 
       2.812291462422e-04       1.211572957998e+02 
       3.017204950037e-04       1.296576313146e+02 
       3.232817069252e-04       1.385749903351e+02 
       3.460246443557e-04       1.479524460265e+02 
       3.700713570982e-04       1.578365804608e+02 
       3.955546726522e-04       1.682776111744e+02 
       4.226186188419e-04       1.793294273122e+02 
       4.514185933159e-04       1.910494988425e+02 
       4.821211745584e-04       2.034986150808e+02 
       5.149034505872e-04       2.167404027317e+02 
       5.499517282838e-04       2.308405706238e+02 
       5.874594838890e-04       2.458658307190e+02 
       6.276244306701e-04       2.618824557575e+02 
       6.706446208551e-04       2.789544560814e+02 
       7.167135720996e-04       2.971413938840e+02 
       7.660145162598e-04       3.164959023331e+02 
       8.187140044746e-04       3.370610359656e+02 
       8.749552509701e-04       3.588676388858e+02 
       9.348517305747e-04       3.819319654745e+02 
       9.984816262502e-04       4.062538090636e+02 
       1.065883719498e-03       4.318153742072e+02 
       1.137055209397e-03       4.585810625744e+02 
       1.211951741847e-03       4.864982381930e+02 
       1.290489664538e-03       5.154989143701e+02 
       1.372550250613e-03       5.455021891989e+02 
       1.457985413507e-03       5.764171748817e+02 
       1.477104874446e-03       5.832908029551e+02 
       1.546624309135e-03       6.081461338944e+02 
       1.638280203768e-03       6.405875533771e+02 
       1.732757062081e-03       6.736389458651e+02 
       1.829855446577e-03       7.071992400124e+02 
       1.929377478327e-03       7.411706998002e+02 
       2.031130757228e-03       7.754593352587e+02 
       2.134931257828e-03       8.099779890045e+02 
       2.240605296501e-03       8.446468584208e+02 
       2.347990709633e-03       8.793919487741e+02 
       2.456937397466e-03       9.141460839557e+02 
       2.567307383533e-03       9.488487737038e+02 
       2.678974523139e-03       9.834459287514e+02 
       2.791823972654e-03       1.017889467782e+03 
       2.905751508707e-03       1.052136856568e+03 
       3.020662765404e-03       1.086150615648e+03 
       3.136472439573e-03       1.119897827420e+03 
       3.253103499290e-03       1.153349666174e+03 
       3.370486419343e-03       1.186480966192e+03 
       3.488558458523e-03       1.219269834521e+03 
       3.607262987184e-03       1.251697307961e+03 
       3.726548868911e-03       1.283747049038e+03 
       3.846369897003e-03       1.315405073742e+03 
       3.966684284344e-03       1.346659504248e+03 
       4.087454203978e-03       1.377500341844e+03 
       4.208645376917e-03       1.407919257818e+03 
       4.330226703374e-03       1.437909402114e+03 
       4.452169933514e-03       1.467465230567e+03 
       4.574449373896e-03       1.496582351385e+03 
       4.697041625968e-03       1.525257390581e+03 
       4.819925353216e-03       1.553487874815e+03 
       4.943081073853e-03       1.581272129115e+03 
       5.066490976220e-03       1.608609186604e+03 
       5.190138754337e-03       1.635498707722e+03 
       5.314009461335e-03       1.661940767622e+03 
       5.438089378714e-03       1.687936100047e+03 
       5.562365899628e-03       1.713485948106e+03 
       5.686827424601e-03       1.738591822753e+03 
       5.811463268232e-03       1.763255570000e+03 
       5.936263575671e-03       1.787479333463e+03 
       6.061219247731e-03       1.811265523121e+03 
       6.186321873683e-03       1.834616787942e+03 
       6.311563670861e-03       1.857535990864e+03 
       6.436937430337e-03       1.880026189505e+03 
       6.562436467976e-03       1.902090602774e+03 
       6.688054580301e-03       1.923732593613e+03 
       6.813786004642e-03       1.944955646634e+03 
       6.939625383099e-03       1.965763346619e+03 
       7.065567729936e-03       1.986159361228e+03 
       7.191608402018e-03       2.006147426360e+03 
       7.317743071994e-03       2.025731334289e+03 
       7.443967703938e-03       2.044914925464e+03 
       7.570278531192e-03       2.063702080687e+03 
       7.696672036190e-03       2.082096715772e+03 
       7.823144932074e-03       2.100102775850e+03 
       7.949694145914e-03       2.117724229734e+03 
       8.076316803376e-03       2.134965065154e+03 
       8.203010214710e-03       2.151829282779e+03 
       8.329771861916e-03       2.168320891687e+03 
       8.456599386988e-03       2.184443904408e+03 
       8.583490581125e-03       2.200202334261e+03 
       8.710443374835e-03       2.215600364549e+03 
       8.837455828834e-03       2.230642355622e+03 
       8.964526125674e-03       2.245331701586e+03 
       9.091652562041e-03       2.259672369069e+03 
       9.218833541657e-03       2.273668306140e+03 
       9.346067568730e-03       2.287323438930e+03 
       9.473353241915e-03       2.300641668768e+03 
       9.600689248731e-03       2.313626871350e+03 
       9.728074360412e-03       2.326282895873e+03 
       9.855507427125e-03       2.338613565561e+03 
       9.982987373568e-03       2.350622677479e+03 
       1.011051319487e-02       2.362314003674e+03 
       1.023808395281e-02       2.373691290962e+03 
       1.036569877231e-02       2.384758261821e+03 
       1.049335683816e-02       2.395518613555e+03 
       1.062105739200e-02       2.405976018302e+03 
       1.074879972952e-02       2.416134121249e+03 
       1.087658319785e-02       2.425996539192e+03 
       1.100440719312e-02       2.435566858504e+03 
       1.113227115822e-02       2.444848632820e+03 
       1.126017458071e-02       2.453845381389e+03 
       1.138811699085e-02       2.462560587411e+03 
       1.151609795982e-02       2.470997697548e+03 
       1.164411709800e-02       2.479160122022e+03 
       1.177217405342e-02       2.487051236060e+03 
       1.190026851029e-02       2.494674381802e+03 
       1.202840018766e-02       2.502032871869e+03 
       1.215656883815e-02       2.509129991725e+03 
       1.228477424677e-02       2.515969003250e+03 
       1.241301622982e-02       2.522553147740e+03 
       1.254129463392e-02       2.528885647767e+03 
       1.266960933502e-02       2.534969709078e+03 
       1.279796023755e-02       2.540808522078e+03 
       1.292634727361e-02       2.546405260910e+03 
       1.305477040223e-02       2.551763083120e+03 
       1.318322960866e-02       2.556885119472e+03 
       1.331172490375e-02       2.561774444577e+03 
       1.344025632335e-02       2.566434035646e+03 
       1.356882392777e-02       2.570866772330e+03 
       1.369742780128e-02       2.575075514293e+03 
       1.382606805166e-02       2.579063099164e+03 
       1.395474480978e-02       2.582832516467e+03 
       1.408345822925e-02       2.586386629151e+03 
       1.421220848604e-02       2.589728315143e+03 
       1.434099577819e-02       2.592860416652e+03 
       1.446982032553e-02       2.595785742426e+03 
       1.459868236946e-02       2.598507071113e+03 
       1.472758217272e-02       2.601027153553e+03 
       1.477104874446e-02       2.601831905421e+03 
       1.485652001919e-02       2.603348714256e+03 
       1.498549621377e-02       2.605474452337e+03 
       1.511451108221e-02       2.607407042082e+03 
       1.524356497103e-02       2.609149133439e+03 
       1.537265824742e-02       2.610703352355e+03 
       1.550179129922e-02       2.612072300975e+03 
       1.563096453481e-02       2.613258558049e+03 
       1.576017838317e-02       2.614264679058e+03 
       1.588943329386e-02       2.615093196549e+03 
       1.601872973702e-02       2.615746620298e+03 
       1.614806820346e-02       2.616227437544e+03 
       1.627744920470e-02       2.616538113197e+03 
       1.640687327309e-02       2.616681090063e+03 
       1.653634096184e-02       2.616658789049e+03 
       1.666585284523e-02       2.616473609379e+03 
       1.679540951869e-02       2.616127928753e+03 
       1.692501159901e-02       2.615624103586e+03 
       1.705465972445e-02       2.614964469198e+03 
       1.718435455500e-02       2.614151339983e+03 
       1.731409677253e-02       2.613187009630e+03 
       1.744388708107e-02       2.612073751279e+03 
       1.757372620701e-02       2.610813817733e+03 
       1.770361489939e-02       2.609409441533e+03 
       1.783355393018e-02       2.607862835246e+03 
       1.796354409452e-02       2.606176191554e+03 
       1.809358621112e-02       2.604351683422e+03 
       1.822368112249e-02       2.602391464240e+03 
       1.835382969536e-02       2.600297667978e+03 
       1.848403282100e-02       2.598072409332e+03 
       1.861429141561e-02       2.595717783842e+03 
       1.874460642071e-02       2.593235868035e+03 
       1.887497880354e-02       2.590628719593e+03 
       1.900540955751e-02       2.587898377375e+03 
       1.913589970264e-02       2.585046861688e+03 
       1.926645028601e-02       2.582076174242e+03 
       1.939706238226e-02       2.578988298396e+03 
       1.952773709406e-02       2.575785199196e+03 
       1.965847555269e-02       2.572468823481e+03 
       1.978927891849e-02       2.569041100039e+03 
       1.992014838148e-02       2.565503939651e+03 
       2.005108516193e-02       2.561859235242e+03 
       2.018209051092e-02       2.558108861896e+03 
       2.031316571100e-02       2.554254677076e+03 
       2.044431207679e-02       2.550298520551e+03 
       2.057553095568e-02       2.546242214585e+03 
       2.070682372844e-02       2.542087564010e+03 
       2.083819181002e-02       2.537836356260e+03 
       2.096963665018e-02       2.533490361543e+03 
       2.110115973430e-02       2.529051332790e+03 
       2.123276258413e-02       2.524521005808e+03 
       2.136444675858e-02       2.519901099281e+03 
       2.149621385456e-02       2.515193314944e+03 
       2.162806550783e-02       2.510399337607e+03 
       2.176000339384e-02       2.505520835112e+03 
       2.189202922869e-02       2.500559458544e+03 
       2.202414477000e-02       2.495516842169e+03 
       2.215635181792e-02       2.490394603591e+03 
       2.228865221608e-02       2.485194343769e+03 
       2.242104785265e-02       2.479917646987e+03 
       2.255354066136e-02       2.474566081051e+03 
       2.268613262261e-02       2.469141197257e+03 
       2.281882576458e-02       2.463644530403e+03 
       2.295162216437e-02       2.458077598859e+03 
       2.308452394923e-02       2.452441904695e+03 
       2.321753329773e-02       2.446738933671e+03 
       2.335065244112e-02       2.440970155139e+03 
       2.348388366452e-02       2.435137022315e+03 
       2.361722930836e-02       2.429240972103e+03 
       2.375069176975e-02       2.423283425621e+03 
       2.388427350389e-02       2.417265787393e+03 
       2.401797702557e-02       2.411189445861e+03 
       2.415180491072e-02       2.405055773784e+03 
       2.428575979794e-02       2.398866127736e+03 
       2.441984439018e-02       2.392621848102e+03 
       2.455406145639e-02       2.386324259367e+03 
       2.468841383328e-02       2.379974670188e+03 
       2.482290442709e-02       2.373574373399e+03 
       2.495753621545e-02       2.367124645871e+03 
       2.509231224934e-02       2.360626748442e+03 
       2.522723565498e-02       2.354081926373e+03 
       2.536230963597e-02       2.347491409026e+03 
       2.549753747532e-02       2.340856409655e+03 
       2.563292253771e-02       2.334178126858e+03 
       2.576846827167e-02       2.327457742587e+03 
       2.590417821199e-02       2.320696422904e+03 
       2.604005598210e-02       2.313895318707e+03 
       2.617610529656e-02       2.307055565285e+03 
       2.631232996367e-02       2.300178281962e+03 
       2.644873388813e-02       2.293264572489e+03 
       2.658532107383e-02       2.286315525431e+03 
       2.672209562671e-02       2.279332213400e+03 
       2.685906175771e-02       2.272315693434e+03 
       2.699622378589e-02       2.265267007235e+03 
       2.713358614160e-02       2.258187180842e+03 
       2.727115336976e-02       2.251077224861e+03 
       2.740893013334e-02       2.243938134394e+03 
       2.754692121688e-02       2.236770888995e+03 
       2.768513153017e-02       2.229576452848e+03 
       2.782356611211e-02       2.222355774646e+03 
       2.796223013461e-02       2.215109787636e+03 
       2.810112890681e-02       2.207839409637e+03 
       2.824026787924e-02       2.200545543052e+03 
       2.837965264837e-02       2.193229074882e+03 
       2.851928896114e-02       2.185890876760e+03 
       2.865918271979e-02       2.178531804766e+03 
       2.879933998685e-02       2.171152699783e+03 
       2.893976699030e-02       2.163754387254e+03 
       2.908047012898e-02       2.156337677088e+03 
       2.922145597818e-02       2.148903363996e+03 
       2.936273129548e-02       2.141452227241e+03 
       2.950430302683e-02       2.133985030611e+03 
       2.964617831285e-02       2.126502522614e+03 
       2.978836449547e-02       2.119005436292e+03 
       2.993086912474e-02       2.111494489302e+03 
       3.007369996602e-02       2.103970383849e+03 
       3.021686500745e-02       2.096433806709e+03 
       3.036037246771e-02       2.088885429295e+03 
       3.050423080418e-02       2.081325907367e+03 
       3.064844872137e-02       2.073755881389e+03 
       3.079303517983e-02       2.066175976217e+03 
       3.093799940540e-02       2.058586801123e+03 
       3.108335089884e-02       2.050988949919e+03 
       3.122909944597e-02       2.043383000769e+03 
       3.137525512828e-02       2.035769516039e+03 
       3.152182833390e-02       2.028149042675e+03 
       3.166882976931e-02       2.020522111729e+03 
       3.181627047136e-02       2.012889238553e+03 
       3.196416182005e-02       2.005250922491e+03 
       3.211251555183e-02       1.997607647218e+03 
       3.226134377355e-02       1.989959880291e+03 
       3.241065897715e-02       1.982308073290e+03 
       3.256047405503e-02       1.974652661651e+03 
       3.271080231618e-02       1.966994064609e+03 
       3.286165750317e-02       1.959332685200e+03 
       3.301305380999e-02       1.951668909829e+03 
       3.316500590077e-02       1.944003108738e+03 
       3.331752892955e-02       1.936335635288e+03 
       3.347063856104e-02       1.928666826173e+03 
       3.362435099248e-02       1.920997001320e+03 
       3.377868297671e-02       1.913326463501e+03 
       3.393365184647e-02       1.905655498358e+03 
       3.408927554005e-02       1.897984374234e+03 
       3.424557262836e-02       1.890313341945e+03 
       3.440256234348e-02       1.882642634505e+03 
       3.456026460891e-02       1.874972467206e+03 
       3.471870007151e-02       1.867303036988e+03 
       3.487789013529e-02       1.859634522563e+03 
       3.503785699720e-02       1.851967083980e+03 
       3.519862368503e-02       1.844300862329e+03 
       3.536021409762e-02       1.836635979631e+03 
       3.552265304751e-02       1.828972538247e+03 
       3.568596630618e-02       1.821310620897e+03 
       3.585018065213e-02       1.813650289901e+03 
       3.601532392203e-02       1.805991587122e+03 
       3.618142506508e-02       1.798334533543e+03 
       3.634851420091e-02       1.790679128304e+03 
       3.651662268130e-02       1.783025349065e+03 
       3.668578315592e-02       1.775373150943e+03 
       3.685602964259e-02       1.767722465968e+03 
       3.702739760222e-02       1.760073202827e+03 
       3.719992401900e-02       1.752425245938e+03 
       3.737364748612e-02       1.744778454836e+03 
       3.754860829768e-02       1.737132663618e+03 
       3.772484854706e-02       1.729487679964e+03 
       3.790241223258e-02       1.721843284435e+03 
       3.808134537088e-02       1.714199229478e+03 
       3.826169611885e-02       1.706555238499e+03 
       3.844351490483e-02       1.698911005004e+03 
       3.862685456988e-02       1.691266191081e+03 
       3.881177052016e-02       1.683620426532e+03 
       3.899832089144e-02       1.675973307590e+03 
       3.918656672684e-02       1.668324395314e+03 
       3.937657216916e-02       1.660673213805e+03 
       3.956840466923e-02       1.653019249429e+03 
       3.976213521187e-02       1.645361948168e+03 
       3.995783856132e-02       1.637700714103e+03 
       4.015559352809e-02       1.630034907318e+03 
       4.035548325948e-02       1.622363841496e+03 
       4.055759555646e-02       1.614686781262e+03 
       4.076202321959e-02       1.607002939985e+03 
       4.096886442734e-02       1.599311476462e+03 
       4.117822315044e-02       1.591611491623e+03 
       4.139020960637e-02       1.583902025233e+03 
       4.160494075878e-02       1.576182051954e+03 
       4.182254086703e-02       1.568450477086e+03 
       4.204314209222e-02       1.560706131851e+03 
       4.226688516637e-02       1.552947768238e+03 
       4.249392013297e-02       1.545174053471e+03 
       4.272440716807e-02       1.537383563576e+03 
       4.295851749227e-02       1.529574776487e+03 
       4.319643438604e-02       1.521746064255e+03 
       4.343835432239e-02       1.513895684338e+03 
       4.368448823320e-02       1.506021770287e+03 
       4.393506292841e-02       1.498122320690e+03 
       4.419032269020e-02       1.490195187053e+03 
       4.445053106828e-02       1.482238060347e+03 
       4.471597290694e-02       1.474248455504e+03 
       4.498695663975e-02       1.466223693950e+03 
       4.526381689488e-02       1.458160883931e+03 
       4.554691746133e-02       1.450056897626e+03 
       4.583665467657e-02       1.441908345468e+03 
       4.613346130763e-02       1.433711546110e+03 
       4.643781101205e-02       1.425462492064e+03 
       4.675022348296e-02       1.417156809589e+03 
       4.707127040428e-02       1.408789712165e+03 
       4.740158236922e-02       1.400355945669e+03 
       4.774185694868e-02       1.391849723808e+03 
       4.809286813854e-02       1.383264651911e+03 
       4.845547746719e-02       1.374593635420e+03 
       4.883064711132e-02       1.365828770541e+03 
       4.921945545170e-02       1.356961211877e+03 
       4.962311560709e-02       1.347981011079e+03 
       5.004299761982e-02       1.338876919048e+03 
       5.048065513860e-02       1.329636141228e+03 
       5.093785766411e-02       1.320244031905e+03 
       5.141662970236e-02       1.310683709595e+03 
       5.191929852605e-02       1.300935568234e+03 
       5.244855269034e-02       1.290976649050e+03 
       5.300751400369e-02       1.280779826445e+03 
       5.359982632332e-02       1.270312740933e+03 
       5.422976531536e-02       1.259536386582e+03 
       5.490237412736e-02       1.248403219247e+03 
       5.562363058970e-02       1.236854604372e+03 
       5.640065169155e-02       1.224817338770e+03 
       5.724193981960e-02       1.212198887805e+03 
       5.815767091566e-02       1.198880842758e+03 
       5.916001411266e-02       1.184709988078e+03 
