# dimensionless total lensed [l(l+1)/2pi] C_l's
# for l=2 to 2600, i.e. number of multipoles equal to 2599
#
# -> if you prefer output in CAMB/HealPix/LensPix units/order, set 'format' to 'camb' in input file
# -> if you don't want to see such a header, set 'headers' to 'no' in input file
# -> for CMB lensing (phi), these are C_l^phi-phi for the lensing potential.
#    Remember the conversion factors:
#    C_l^dd (deflection) = l(l+1) C_l^phi-phi
#    C_l^gg (shear/convergence) = 1/4 (l(l+1))^2 C_l^phi-phi
#
# 1:l     2:TT                     3:EE                     4:TE                     5:BB                     6:phiphi                 7:TPhi                   8:Ephi               
    2       1.448122192690e-10       4.688820054255e-15       3.797174692650e-13       2.582647942468e-19       8.585490090747e-09       4.760847519040e-10      -2.001137442687e-12 
    3       1.369625298773e-10       6.370685956412e-15       4.369023486323e-13       5.165889095096e-19       5.330225712271e-09       3.382872141911e-10      -1.567553199503e-12 
    4       1.294938395061e-10       5.863370728972e-15       4.169122603855e-13       8.611142625866e-19       3.713810901245e-09       2.564515835666e-10      -1.075331069085e-12 
    5       1.238464326362e-10       4.174663238392e-15       3.618183923096e-13       1.291922422307e-18       2.772784515015e-09       2.027251168825e-10      -6.436290973154e-13 
    6       1.199285793185e-10       2.464444137535e-15       2.963832870460e-13       1.809117250619e-18       2.165291831623e-09       1.650248989237e-10      -3.088324259464e-13 
    7       1.173591591390e-10       1.339596126760e-15       2.355124375748e-13       2.412825865791e-18       1.747117846071e-09       1.373526723263e-10      -7.895568487475e-14 
    8       1.158294516427e-10       8.146205076661e-16       1.864094805819e-13       3.103199516350e-18       1.444837341130e-09       1.163613525189e-10       5.470815270277e-14 
    9       1.150786050279e-10       6.299702621892e-16       1.515042869810e-13       3.880414238895e-18       1.217473147613e-09       1.000315637459e-10       1.105312785533e-13 
   10       1.148855435437e-10       5.488607813148e-16       1.302924892341e-13       4.744671172340e-18       1.041245818567e-09       8.706240107938e-11       1.114835066271e-13 
   11       1.151576056371e-10       4.722905627885e-16       1.205335559734e-13       5.696196408068e-18       8.771126120830e-10       7.687525077014e-11       8.100194630337e-14 
   12       1.157686529688e-10       4.031533658332e-16       1.192328023996e-13       6.735240269866e-18       7.666284546103e-10       6.802349511791e-11       3.872461958506e-14 
   13       1.166443122425e-10       3.670804121729e-16       1.234213444330e-13       7.862075938760e-18       6.759062045315e-10       6.080726044559e-11      -4.491949859529e-16 
   14       1.177100774971e-10       3.683247211967e-16       1.306232031783e-13       9.076997365112e-18       6.004037931224e-10       5.450255254106e-11      -2.851149155744e-14 
   15       1.189718690982e-10       3.923780392799e-16       1.391444170952e-13       1.038031644246e-17       5.368343578481e-10       4.920711962615e-11      -4.213931365748e-14 
   16       1.203781320368e-10       4.264118490114e-16       1.479353489595e-13       1.177235945297e-17       4.827723990216e-10       4.466949627831e-11      -4.281215124105e-14 
   17       1.219048986020e-10       4.702915585900e-16       1.564786999864e-13       1.325346283169e-17       4.363855714185e-10       4.072207490333e-11      -3.460660770168e-14 
   18       1.235160790841e-10       5.325718431937e-16       1.648603433762e-13       1.482396873891e-17       3.961148865551e-10       3.723794632048e-11      -2.271577830653e-14 
   19       1.252230718984e-10       6.181648352679e-16       1.733420259875e-13       1.648421772296e-17       3.613251807198e-10       3.418618932248e-11      -1.095950581766e-14 
   20       1.269990489855e-10       7.292544048125e-16       1.822078304105e-13       1.823454739574e-17       3.306774880972e-10       3.149289731910e-11      -2.910329642743e-15 
   21       1.288529484107e-10       8.638744315350e-16       1.916095434692e-13       2.007528129489e-17       3.036923445877e-10       2.911246031318e-11       4.612018645610e-16 
   22       1.307718382099e-10       1.018302692346e-15       2.015832107677e-13       2.200672803964e-17       2.797262518864e-10       2.697038307494e-11      -5.578258988130e-16 
   23       1.327513534851e-10       1.192779403776e-15       2.118820263515e-13       2.402917147529e-17       2.584510560352e-10       2.504244584050e-11      -4.664557396519e-15 
   24       1.347705327652e-10       1.388472584370e-15       2.221066939886e-13       2.614286973467e-17       2.393762021494e-10       2.329969165251e-11      -9.912944527616e-15 
   25       1.368430378700e-10       1.605168475947e-15       2.319258730320e-13       2.834804767438e-17       2.222782692741e-10       2.173835541977e-11      -1.472111826262e-14 
   26       1.389741799652e-10       1.842202892243e-15       2.409949745351e-13       3.064489540899e-17       2.068487234788e-10       2.034355422022e-11      -1.763721755402e-14 
   27       1.411488938949e-10       2.100179022580e-15       2.490213403133e-13       3.303356399455e-17       1.929030941623e-10       1.908313603611e-11      -1.832868727462e-14 
   28       1.433380474873e-10       2.380281354693e-15       2.557582245624e-13       3.551416473569e-17       1.802015518491e-10       1.791336229714e-11      -1.696405523958e-14 
   29       1.455519376044e-10       2.684506357146e-15       2.612051647661e-13       3.808677468541e-17       1.686796480948e-10       1.683336205513e-11      -1.419116697585e-14 
   30       1.478027922879e-10       3.015350512348e-15       2.654778380241e-13       4.075142745179e-17       1.582140990416e-10       1.584794857105e-11      -1.101112616054e-14 
   31       1.500919118439e-10       3.375294172423e-15       2.687193287743e-13       4.350811552842e-17       1.485919546172e-10       1.495291007562e-11      -8.497962048132e-15 
   32       1.524214671379e-10       3.765410234468e-15       2.709723291569e-13       4.635681590288e-17       1.397638016983e-10       1.413897351398e-11      -6.968862006088e-15 
   33       1.547842851019e-10       4.186220418928e-15       2.722621866308e-13       4.929746921122e-17       1.316674515653e-10       1.338744263136e-11      -6.508369940076e-15 
   34       1.571665849408e-10       4.638160686657e-15       2.725997179173e-13       5.232998227840e-17       1.241898919738e-10       1.267600724465e-11      -7.101269118237e-15 
   35       1.595735981877e-10       5.122011373657e-15       2.718730768990e-13       5.545426920646e-17       1.172930400036e-10       1.200623499431e-11      -8.359147248904e-15 
   36       1.620111780426e-10       5.638603260050e-15       2.699157466846e-13       5.867022168008e-17       1.109217577143e-10       1.138487983222e-11      -9.683853790683e-15 
   37       1.644800865790e-10       6.188728167075e-15       2.665577461702e-13       6.197771580691e-17       1.049933481946e-10       1.081561652192e-11      -1.048002004889e-14 
   38       1.669823966934e-10       6.773239018080e-15       2.617109348539e-13       6.537667771339e-17       9.949261603161e-11       1.029648813320e-11      -1.067278664217e-14 
   39       1.695159755123e-10       7.392976638782e-15       2.553106319905e-13       6.886703895891e-17       9.440221669633e-11       9.821068944905e-12      -1.035780078392e-14 
   40       1.720719151047e-10       8.048739402716e-15       2.472927674004e-13       7.244871919654e-17       8.967373690677e-11       9.378708574111e-12      -9.665792312546e-15 
   41       1.746392464451e-10       8.741262395219e-15       2.376083561121e-13       7.612164681985e-17       8.524458727098e-11       8.957805056210e-12      -8.754356329670e-15 
   42       1.772225333339e-10       9.471153493702e-15       2.262725886503e-13       7.988582853926e-17       8.110181083092e-11       8.557729630767e-12      -7.774072092447e-15 
   43       1.798288811124e-10       1.023893175602e-14       2.133317217810e-13       8.374130276863e-17       7.723448343979e-11       8.180206879184e-12      -6.895563949889e-15 
   44       1.824627559628e-10       1.104503968231e-14       1.988509606690e-13       8.768812268346e-17       7.361456459793e-11       7.825941377811e-12      -6.320999424498e-15 
   45       1.851263567219e-10       1.188988267051e-14       1.828896758399e-13       9.172636354699e-17       7.020693058239e-11       7.494723524479e-12      -6.224823813217e-15 
   46       1.878215670264e-10       1.277397099251e-14       1.654158825489e-13       9.585614351808e-17       6.700626269218e-11       7.186006714770e-12      -6.550719458907e-15 
   47       1.905480784912e-10       1.369781337454e-14       1.463678805121e-13       1.000776117945e-16       6.400886856604e-11       6.898342490886e-12      -7.156916486634e-15 
   48       1.933025173152e-10       1.466187567258e-14       1.256773285046e-13       1.043909453165e-16       6.120155506688e-11       6.629114972452e-12      -7.870213872188e-15 
   49       1.960781840914e-10       1.566657932819e-14       1.032687513777e-13       1.087963507012e-16       5.856092156785e-11       6.374458181844e-12      -8.484212380294e-15 
   50       1.988680175516e-10       1.671226353076e-14       7.907105363855e-14       1.132940475238e-16       5.606041526349e-11       6.130353556147e-12      -8.814141401615e-15 
   51       2.016750378400e-10       1.779906317889e-14       5.305688825673e-14       1.178842083211e-16       5.369539437843e-11       5.896465492105e-12      -8.882983634976e-15 
   52       2.045042881943e-10       1.892699512368e-14       2.521312192388e-14       1.225670056466e-16       5.146364648519e-11       5.673204008244e-12      -8.782817371536e-15 
   53       2.073597528651e-10       2.009598839207e-14      -4.470167203730e-15       1.273426303329e-16       4.935788773557e-11       5.460609059778e-12      -8.623513126296e-15 
   54       2.102442486406e-10       2.130588093464e-14      -3.599961747354e-14       1.322112925481e-16       4.736542141865e-11       5.258323402131e-12      -8.533629818604e-15 
   55       2.131596171771e-10       2.255648707116e-14      -6.938155636800e-14       1.371731827705e-16       4.547201630046e-11       5.065798787501e-12      -8.628397381271e-15 
   56       2.161076064486e-10       2.384782689827e-14      -1.046319481819e-13       1.422283409355e-16       4.367545210014e-11       4.883036706241e-12      -8.902297369778e-15 
   57       2.190890182654e-10       2.517994817516e-14      -1.417687913924e-13       1.473767566334e-16       4.197474093824e-11       4.709984129862e-12      -9.311366800849e-15 
   58       2.221033320037e-10       2.655286013215e-14      -1.808093360873e-13       1.526184058495e-16       4.036602919285e-11       4.546298647535e-12      -9.803395960479e-15 
   59       2.251486078502e-10       2.796653297294e-14      -2.217701305557e-13       1.579532504595e-16       3.884242046458e-11       4.391330420500e-12      -1.031754223751e-14 
   60       2.282213900470e-10       2.942089737696e-14      -2.646670678805e-13       1.633812377250e-16       3.739379854158e-11       4.244104136494e-12      -1.078394395718e-14 
   61       2.313181700231e-10       3.091575923048e-14      -3.095093240913e-13       1.689022792384e-16       3.600963897660e-11       4.103590484458e-12      -1.113923690942e-14 
   62       2.344403784528e-10       3.245052258039e-14      -3.562794772276e-13       1.745161833802e-16       3.468858178650e-11       3.969632609627e-12      -1.137804746505e-14 
   63       2.375903471234e-10       3.402440332826e-14      -4.049489881550e-13       1.802227067359e-16       3.343070307481e-11       3.842196535408e-12      -1.151242498411e-14 
   64       2.407698016002e-10       3.563650538978e-14      -4.554837709164e-13       1.860215721745e-16       3.223463544433e-11       3.721091309391e-12      -1.155707510581e-14 
   65       2.439798139641e-10       3.728581750736e-14      -5.078440455078e-13       1.919124676912e-16       3.109748578858e-11       3.605960144017e-12      -1.152947816258e-14 
   66       2.472207555508e-10       3.897121006269e-14      -5.619841906534e-13       1.978950452505e-16       3.001475308317e-11       3.496271557261e-12      -1.145000759413e-14 
   67       2.504922496893e-10       4.069143188933e-14      -6.178525965813e-13       2.039689196299e-16       2.898024617723e-11       3.391310513306e-12      -1.134204836151e-14 
   68       2.537937439930e-10       4.244522525930e-14      -6.754007660730e-13       2.101337265803e-16       2.798773853956e-11       3.290367734772e-12      -1.122708351102e-14 
   69       2.571264675332e-10       4.423170502336e-14      -7.346130881253e-13       2.163893135815e-16       2.703650560947e-11       3.193371986644e-12      -1.110853307323e-14 
   70       2.604917871599e-10       4.605005092148e-14      -7.954828604543e-13       2.227355858384e-16       2.612676693119e-11       3.100370583095e-12      -1.098483817776e-14 
   71       2.638905921860e-10       4.789939604408e-14      -8.580036627158e-13       2.291724507364e-16       2.525801136656e-11       3.011338828671e-12      -1.085419306899e-14 
   72       2.673232629701e-10       4.977882666693e-14      -9.221694458095e-13       2.356998182019e-16       2.442895930982e-11       2.926176227299e-12      -1.071453482833e-14 
   73       2.707896395015e-10       5.168738208607e-14      -9.879746211827e-13       2.423176010623e-16       2.363752490245e-11       2.844702691284e-12      -1.056353309639e-14 
   74       2.742889899834e-10       5.362405445277e-14      -1.055414150135e-12       2.490257154062e-16       2.288077824795e-11       2.766654750317e-12      -1.039857979527e-14 
   75       2.778199794172e-10       5.558778860848e-14      -1.124483633124e-12       2.558240809436e-16       2.215490762666e-11       2.691681760477e-12      -1.021677885073e-14 
   76       2.813812948793e-10       5.757743668213e-14      -1.195172028175e-12       2.627126921183e-16       2.145616631439e-11       2.619434341820e-12      -1.001631270082e-14 
   77       2.849737224359e-10       5.959161268867e-14      -1.267438075754e-12       2.696918456190e-16       2.078399589380e-11       2.549856689692e-12      -9.800852226919e-15 
   78       2.885983936464e-10       6.162881099280e-14      -1.341229717132e-12       2.767619552031e-16       2.013840649194e-11       2.482940927971e-12      -9.575936058402e-15 
   79       2.922561448100e-10       6.368744811935e-14      -1.416491023051e-12       2.839234864067e-16       1.951902539315e-11       2.418637740280e-12      -9.347682791503e-15 
   80       2.959474990158e-10       6.576586166050e-14      -1.493162131880e-12       2.911769583560e-16       1.892507944392e-11       2.356854470213e-12      -9.122808943651e-15 
   81       2.996726481926e-10       6.786230918313e-14      -1.571179187775e-12       2.985229455781e-16       1.835537745780e-11       2.297453221561e-12      -8.908646907816e-15 
   82       3.034314351588e-10       6.997496713613e-14      -1.650474278835e-12       3.059620798125e-16       1.780829262031e-11       2.240248958534e-12      -8.713162906860e-15 
   83       3.072233356725e-10       7.210192975766e-14      -1.730975375265e-12       3.134950518212e-16       1.728174489386e-11       2.185007605990e-12      -8.544974947885e-15 
   84       3.110477788001e-10       7.424127813729e-14      -1.812611641963e-12       3.211225521680e-16       1.677370688285e-11       2.131504281155e-12      -8.411177622085e-15 
   85       3.149052083636e-10       7.639130295071e-14      -1.895330523692e-12       3.288450783048e-16       1.628385632603e-11       2.079713241951e-12      -8.310362851913e-15 
   86       3.187961653661e-10       7.855031681797e-14      -1.979083392054e-12       3.366630986758e-16       1.581216656639e-11       2.029646091349e-12      -8.238469670517e-15 
   87       3.227209532359e-10       8.071658751679e-14      -2.063820450951e-12       3.445771116805e-16       1.535839878024e-11       1.981293569576e-12      -8.190855877905e-15 
   88       3.266796255620e-10       8.288833806891e-14      -2.149490765066e-12       3.525876464589e-16       1.492209317981e-11       1.934624664961e-12      -8.162279135549e-15 
   89       3.306719738301e-10       8.506374682652e-14      -2.236042288354e-12       3.606952636766e-16       1.450256021576e-11       1.889585724769e-12      -8.146878060998e-15 
   90       3.346975151589e-10       8.724094755853e-14      -2.323421892520e-12       3.689005563107e-16       1.409887177978e-11       1.846099566043e-12      -8.138153322484e-15 
   91       3.387554800358e-10       8.941802953706e-14      -2.411575395508e-12       3.772041504341e-16       1.370985240712e-11       1.804064586438e-12      -8.128948733531e-15 
   92       3.428448000529e-10       9.159303762370e-14      -2.500447589986e-12       3.856067060018e-16       1.333407047915e-11       1.763353875066e-12      -8.111432347564e-15 
   93       3.469644423822e-10       9.376399755462e-14      -2.589981181196e-12       3.941088369720e-16       1.297017809239e-11       1.723847244457e-12      -8.078813324815e-15 
   94       3.511144973832e-10       9.592899595812e-14      -2.680113355907e-12       4.027108562233e-16       1.261800824604e-11       1.685534768644e-12      -8.030828971318e-15 
   95       3.552952326574e-10       9.808611258739e-14      -2.770778747700e-12       4.114129935468e-16       1.227762717382e-11       1.648427245702e-12      -7.969051836730e-15 
   96       3.595067534809e-10       1.002333966206e-13      -2.861910494952e-12       4.202154725734e-16       1.194899642315e-11       1.612524232730e-12      -7.895232328848e-15 
   97       3.637489952995e-10       1.023688670934e-13      -2.953440254348e-12       4.291185104516e-16       1.163196884388e-11       1.577813608589e-12      -7.811303634875e-15 
   98       3.680217162248e-10       1.044905133306e-13      -3.045298214398e-12       4.381223175260e-16       1.132628457688e-11       1.544271136647e-12      -7.719386642693e-15 
   99       3.723244895294e-10       1.065962953793e-13      -3.137413108948e-12       4.472270970148e-16       1.103156704272e-11       1.511860027519e-12      -7.621794862134e-15 
  100       3.766566961428e-10       1.086841444404e-13      -3.229712230697e-12       4.564330446882e-16       1.074731893030e-11       1.480530501807e-12      -7.521039346247e-15 
  101       3.810175171470e-10       1.107519633013e-13      -3.322121444709e-12       4.657403485463e-16       1.047291818547e-11       1.450219352846e-12      -7.419833612570e-15 
  102       3.854059262719e-10       1.127976267679e-13      -3.414565201926e-12       4.751491884971e-16       1.020761399971e-11       1.420849509440e-12      -7.321098564402e-15 
  103       3.898206823911e-10       1.148189820973e-13      -3.506966552684e-12       4.846597360344e-16       9.950522798754e-12       1.392329598606e-12      -7.227967412069e-15 
  104       3.942605924780e-10       1.168139058581e-13      -3.599248372944e-12       4.942722704382e-16       9.700828643425e-12       1.364574925642e-12      -7.143110333052e-15 
  105       3.987253570918e-10       1.187804823305e-13      -3.691337202532e-12       5.039875459451e-16       9.458423902833e-12       1.337574583814e-12      -7.066593954249e-15 
  106       4.032148256456e-10       1.207168501241e-13      -3.783159952994e-12       5.138064738077e-16       9.223348051366e-12       1.311332637238e-12      -6.997740545529e-15 
  107       4.077287316678e-10       1.226211489402e-13      -3.874642767701e-12       5.237300111487e-16       8.995589241130e-12       1.285847313624e-12      -6.935779936633e-15 
