# Matter power spectrum P(k) at redshift z=3
# for k=1.0432e-05 to 1.4771 h/Mpc,
# number of wavenumbers equal to 615
#    1:k (h/Mpc)              2:P (Mpc/h)^3        
       1.043203858107e-05       5.012921100109e+00 
       2.328525180852e-05       1.089923829811e+01 
       3.618348405387e-05       1.669396411998e+01 
       4.916128950049e-05       2.245486084387e+01 
       6.225379152945e-05       2.821549375954e+01 
       7.549699456267e-05       3.400143834368e+01 
       8.892810583773e-05       3.983483903589e+01 
       1.025858713772e-04       4.573628630207e+01 
       1.165109304478e-04       5.172578648303e+01 
       1.307461928380e-04       5.782335578771e+01 
       1.453372432901e-04       6.404943860175e+01 
       1.603327773653e-04       7.042523803411e+01 
       1.757850728472e-04       7.697300190728e+01 
       1.917505004313e-04       8.371628726754e+01 
       2.082900768061e-04       9.068021641723e+01 
       2.254700621846e-04       9.789173182941e+01 
       2.433626027213e-04       1.053798536649e+02 
       2.620464158443e-04       1.131759408020e+02 
       2.816075130690e-04       1.213139536680e+02 
       3.021399500277e-04       1.298307143315e+02 
       3.237465868717e-04       1.387661559857e+02 
       3.465398334842e-04       1.481635498955e+02 
       3.706423427158e-04       1.580696929485e+02 
       3.961876008558e-04       1.685350330392e+02 
       4.233203477970e-04       1.796137027239e+02 
       4.521967403246e-04       1.913634242018e+02 
       4.829841519604e-04       2.038452413849e+02 
       5.158604842419e-04       2.171230287991e+02 
       5.510128511820e-04       2.312627241113e+02 
       5.886354965904e-04       2.463312336910e+02 
       6.289268201287e-04       2.623949717710e+02 
       6.720854302207e-04       2.795180165092e+02 
       7.183052166976e-04       2.977599026721e+02 
       7.677695454337e-04       3.171731206534e+02 
       8.206448152580e-04       3.378004511674e+02 
       8.770737670220e-04       3.596723254223e+02 
       9.371690672518e-04       3.828044484594e+02 
       1.001007768409e-03       4.071959430197e+02 
       1.068627240872e-03       4.328282496655e+02 
       1.140023059998e-03       4.596649510686e+02 
       1.215149122691e-03       4.876525820314e+02 
       1.293919998328e-03       5.167223621461e+02 
       1.376215245157e-03       5.467926725030e+02 
       1.461885204045e-03       5.777720173271e+02 
       1.477104874446e-03       5.832412088477e+02 
       1.550757658549e-03       6.095621811746e+02 
       1.642644736699e-03       6.420613128467e+02 
       1.737349510010e-03       6.751667256669e+02 
       1.834671884897e-03       7.087772803069e+02 
       1.934413541785e-03       7.427952913768e+02 
       2.036381825689e-03       7.771268201431e+02 
       2.140392609072e-03       8.116851505187e+02 
       2.246272226422e-03       8.463906967008e+02 
       2.353858622522e-03       8.811698351133e+02 
       2.463001870401e-03       9.159558036134e+02 
       2.573564209306e-03       9.506885555662e+02 
       2.685419736086e-03       9.853144632281e+02 
       2.798453861325e-03       1.019785914678e+03 
       2.912562618755e-03       1.054060844973e+03 
       3.027651895465e-03       1.088102238032e+03 
       3.143636632334e-03       1.121877629975e+03 
       3.260440029454e-03       1.155358637117e+03 
       3.377992779771e-03       1.188520523158e+03 
       3.496232345489e-03       1.221341811597e+03 
       3.615102285411e-03       1.253803942390e+03 
       3.734551636867e-03       1.285890967298e+03 
       3.854534352741e-03       1.317589276605e+03 
       3.975008792099e-03       1.348887350535e+03 
       4.095937261616e-03       1.379775530828e+03 
       4.217285604292e-03       1.410245810470e+03 
       4.339022831591e-03       1.440291641587e+03 
       4.461120795087e-03       1.469907762344e+03 
       4.583553893759e-03       1.499090043485e+03 
       4.706298813281e-03       1.527835354063e+03 
       4.829334293924e-03       1.556141444640e+03 
       4.952640923930e-03       1.584006845335e+03 
       5.076200955548e-03       1.611430775806e+03 
       5.199998141161e-03       1.638413064671e+03 
       5.324017587240e-03       1.664953917450e+03 
       5.448245624081e-03       1.691054239531e+03 
       5.572669689518e-03       1.716715369541e+03 
       5.697278225024e-03       1.741938917071e+03 
       5.822060582774e-03       1.766726811115e+03 
       5.947006942428e-03       1.791081263107e+03 
       6.072108236534e-03       1.815004736510e+03 
       6.197356083573e-03       1.838499919320e+03 
       6.322742727803e-03       1.861569700003e+03 
       6.448260985133e-03       1.884217146764e+03 
       6.573904194371e-03       1.906445474823e+03 
       6.699666173259e-03       1.928258029475e+03 
       6.825541178767e-03       1.949658263573e+03 
       6.951523871205e-03       1.970649716542e+03 
       7.077609281731e-03       1.991235998025e+03 
       7.203792782906e-03       2.011420773922e+03 
       7.330070061978e-03       2.031207755640e+03 
       7.456437096616e-03       2.050600692642e+03 
       7.582890132831e-03       2.069603365393e+03 
       7.709425664887e-03       2.088219580636e+03 
       7.836040416975e-03       2.106453166021e+03 
       7.962731326500e-03       2.124307964940e+03 
       8.089495528810e-03       2.141787831978e+03 
       8.216330343228e-03       2.158896627179e+03 
       8.343233260272e-03       2.175638211901e+03 
       8.470201929936e-03       2.192016443406e+03 
       8.597234150950e-03       2.208035176665e+03 
       8.724327860911e-03       2.223698504410e+03 
       8.851481127218e-03       2.239010446933e+03 
       8.978692138732e-03       2.253974304908e+03 
       9.105959198102e-03       2.268593862001e+03 
       9.233280714688e-03       2.282872876581e+03 
       9.360655198039e-03       2.296815081334e+03 
       9.488081251875e-03       2.310424181095e+03 
       9.615557568526e-03       2.323703851894e+03 
       9.743082923790e-03       2.336657741438e+03 
       9.870656172186e-03       2.349289468965e+03 
       9.998276242552e-03       2.361602626563e+03 
       1.012594213397e-02       2.373600779701e+03 
       1.025365291199e-02       2.385287467418e+03 
       1.038140770513e-02       2.396666203781e+03 
       1.050920570165e-02       2.407740476107e+03 
       1.063704614648e-02       2.418513746522e+03 
       1.076492833851e-02       2.428989448947e+03 
       1.089285162789e-02       2.439170988237e+03 
       1.102081541371e-02       2.449061739316e+03 
       1.114881914167e-02       2.458665043664e+03 
       1.127686230206e-02       2.467984208900e+03 
       1.140494442777e-02       2.477022507684e+03 
       1.153306509254e-02       2.485783176958e+03 
       1.166122390919e-02       2.494269419062e+03 
       1.178942052815e-02       2.502484403303e+03 
       1.191765463595e-02       2.510431267921e+03 
       1.204592595390e-02       2.518113124598e+03 
       1.217423423680e-02       2.525533059931e+03 
       1.230257927179e-02       2.532694139706e+03 
       1.243096087729e-02       2.539599412234e+03 
       1.255937890192e-02       2.546251909014e+03 
       1.268783322364e-02       2.552654648267e+03 
       1.281632374883e-02       2.558810634877e+03 
       1.294485041151e-02       2.564722860477e+03 
       1.307341317259e-02       2.570394302867e+03 
       1.320201201916e-02       2.575827912802e+03 
       1.333064696390e-02       2.581026582337e+03 
       1.345931804446e-02       2.585993104989e+03 
       1.358802532290e-02       2.590730186631e+03 
       1.371676888526e-02       2.595240535212e+03 
       1.384554884105e-02       2.599526817340e+03 
       1.397436532286e-02       2.603591890765e+03 
       1.410321848599e-02       2.607438458930e+03 
       1.423210850810e-02       2.611069249281e+03 
       1.436103558892e-02       2.614486957511e+03 
       1.448999994995e-02       2.617694249183e+03 
       1.461900183425e-02       2.620693764898e+03 
       1.474804150622e-02       2.623488120716e+03 
       1.477104874446e-02       2.623964908342e+03 
       1.487711925140e-02       2.626079911222e+03 
       1.500623537633e-02       2.628471709308e+03 
       1.513539020844e-02       2.630666067408e+03 
       1.526458409589e-02       2.632665517131e+03 
       1.539381740754e-02       2.634472570612e+03 
       1.552309053288e-02       2.636089720037e+03 
       1.565240388197e-02       2.637519438690e+03 
       1.578175788547e-02       2.638764180009e+03 
       1.591115299462e-02       2.639826378930e+03 
       1.604058968125e-02       2.640708451637e+03 
       1.617006843790e-02       2.641412796270e+03 
       1.629958977779e-02       2.641941791871e+03 
       1.642915423500e-02       2.642297799891e+03 
       1.655876236450e-02       2.642483163676e+03 
       1.668841474234e-02       2.642500208744e+03 
       1.681811196573e-02       2.642351243200e+03 
       1.694785465325e-02       2.642038557715e+03 
       1.707764344499e-02       2.641564425630e+03 
       1.720747900278e-02       2.640931103987e+03 
       1.733736201036e-02       2.640140831713e+03 
       1.746729317365e-02       2.639195831798e+03 
       1.759727322095e-02       2.638098310300e+03 
       1.772730290325e-02       2.636850457029e+03 
       1.785738299446e-02       2.635454445494e+03 
       1.798751429175e-02       2.633912432133e+03 
       1.811769761582e-02       2.632226558066e+03 
       1.824793381127e-02       2.630398948206e+03 
       1.837822374691e-02       2.628431711495e+03 
       1.850856831611e-02       2.626326940575e+03 
       1.863896843725e-02       2.624086712745e+03 
       1.876942505402e-02       2.621713089471e+03 
       1.889993913592e-02       2.619208116744e+03 
       1.903051167861e-02       2.616573825153e+03 
       1.916114370442e-02       2.613812229109e+03 
       1.929183626277e-02       2.610925328072e+03 
       1.942259043071e-02       2.607915106276e+03 
       1.955340731335e-02       2.604783532279e+03 
       1.968428804442e-02       2.601532559876e+03 
       1.981523378682e-02       2.598164126707e+03 
       1.994624573313e-02       2.594680156210e+03 
       2.007732510625e-02       2.591082556067e+03 
       2.020847315994e-02       2.587373219238e+03 
       2.033969117949e-02       2.583554023267e+03 
       2.047098048229e-02       2.579626830634e+03 
       2.060234241857e-02       2.575593489000e+03 
       2.073377837202e-02       2.571455831345e+03 
       2.086528976053e-02       2.567215674897e+03 
       2.099687803689e-02       2.562874822128e+03 
       2.112854468956e-02       2.558435060918e+03 
       2.126029124344e-02       2.553898163589e+03 
       2.139211926066e-02       2.549265888286e+03 
       2.152403034141e-02       2.544539977890e+03 
       2.165602612481e-02       2.539722159794e+03 
       2.178810828973e-02       2.534814147017e+03 
       2.192027855578e-02       2.529817637778e+03 
       2.205253868416e-02       2.524734314852e+03 
       2.218489047868e-02       2.519565846484e+03 
       2.231733578671e-02       2.514313886174e+03 
       2.244987650025e-02       2.508980071437e+03 
       2.258251455695e-02       2.503566026037e+03 
       2.271525194119e-02       2.498073358027e+03 
       2.284809068525e-02       2.492503660796e+03 
       2.298103287043e-02       2.486858512814e+03 
       2.311408062824e-02       2.481139477354e+03 
       2.324723614166e-02       2.475348102654e+03 
       2.338050164641e-02       2.469485922130e+03 
       2.351387943220e-02       2.463554453996e+03 
       2.364737184418e-02       2.457555201430e+03 
       2.378098128425e-02       2.451489652883e+03 
       2.391471021255e-02       2.445359281279e+03 
       2.404856114892e-02       2.439165544506e+03 
       2.418253667443e-02       2.432909885571e+03 
       2.431663943301e-02       2.426593732211e+03 
       2.445087213301e-02       2.420218497065e+03 
       2.458523754895e-02       2.413785577528e+03 
       2.471973852323e-02       2.407296356367e+03 
       2.485437796791e-02       2.400752199941e+03 
       2.498915886664e-02       2.394154460569e+03 
       2.512408427648e-02       2.387504474676e+03 
       2.525915732998e-02       2.380803563966e+03 
       2.539438123716e-02       2.374053034791e+03 
       2.552975928765e-02       2.367254177524e+03 
       2.566529485291e-02       2.360408267810e+03 
       2.580099138842e-02       2.353516565999e+03 
       2.593685243612e-02       2.346580317326e+03 
       2.607288162674e-02       2.339600751168e+03 
       2.620908268236e-02       2.332579082203e+03 
       2.634545941900e-02       2.325516508550e+03 
       2.648201574928e-02       2.318414213898e+03 
       2.661875568521e-02       2.311273366750e+03 
       2.675568334106e-02       2.304095119559e+03 
       2.689280293637e-02       2.296880609599e+03 
       2.703011879899e-02       2.289630958723e+03 
       2.716763536830e-02       2.282347272600e+03 
       2.730535719854e-02       2.275030642858e+03 
       2.744328896221e-02       2.267682144835e+03 
       2.758143545366e-02       2.260302837961e+03 
       2.771980159279e-02       2.252893766637e+03 
       2.785839242885e-02       2.245455959818e+03 
       2.799721314444e-02       2.237990430738e+03 
       2.813626905965e-02       2.230498176799e+03 
       2.827556563631e-02       2.222980180186e+03 
       2.841510848249e-02       2.215437407695e+03 
       2.855490335708e-02       2.207870809912e+03 
       2.869495617463e-02       2.200281322356e+03 
       2.883527301032e-02       2.192669864203e+03 
       2.897586010518e-02       2.185037339884e+03 
       2.911672387145e-02       2.177384637549e+03 
       2.925787089827e-02       2.169712629799e+03 
       2.939930795746e-02       2.162022173757e+03 
       2.954104200964e-02       2.154314110374e+03 
       2.968308021059e-02       2.146589265215e+03 
       2.982542991782e-02       2.138848448017e+03 
       2.996809869748e-02       2.131092452691e+03 
       3.011109433152e-02       2.123322057350e+03 
       3.025442482519e-02       2.115538024280e+03 
       3.039809841485e-02       2.107741100130e+03 
       3.054212357609e-02       2.099932015144e+03 
       3.068650903226e-02       2.092111484391e+03 
       3.083126376335e-02       2.084280206415e+03 
       3.097639701526e-02       2.076438863979e+03 
       3.112191830951e-02       2.068588123932e+03 
       3.126783745336e-02       2.060728636973e+03 
       3.141416455044e-02       2.052861037933e+03 
       3.156091001183e-02       2.044985945143e+03 
       3.170808456769e-02       2.037103961254e+03 
       3.185569927941e-02       2.029215672373e+03 
       3.200376555236e-02       2.021321648414e+03 
       3.215229514927e-02       2.013422442936e+03 
       3.230130020422e-02       2.005518593151e+03 
       3.245079323734e-02       1.997610620109e+03 
       3.260078717023e-02       1.989699027694e+03 
       3.275129534217e-02       1.981784304070e+03 
       3.290233152715e-02       1.973866919967e+03 
       3.305390995172e-02       1.965947329548e+03 
       3.320604531382e-02       1.958025970565e+03 
       3.335875280260e-02       1.950103263243e+03 
       3.351204811919e-02       1.942179610995e+03 
       3.366594749870e-02       1.934255400244e+03 
       3.382046773333e-02       1.926330999661e+03 
       3.397562619672e-02       1.918406761032e+03 
       3.413144086972e-02       1.910483018195e+03 
       3.428793036751e-02       1.902560087442e+03 
       3.444511396827e-02       1.894638267118e+03 
       3.460301164352e-02       1.886717837444e+03 
       3.476164409014e-02       1.878799060523e+03 
       3.492103276427e-02       1.870882179899e+03 
       3.508119991724e-02       1.862967420597e+03 
       3.524216863361e-02       1.855054988605e+03 
       3.540396287145e-02       1.847145070827e+03 
       3.556660750517e-02       1.839237834693e+03 
       3.573012837092e-02       1.831333428086e+03 
       3.589455231483e-02       1.823431978724e+03 
       3.605990724428e-02       1.815533594154e+03 
       3.622622218253e-02       1.807638361152e+03 
       3.639352732677e-02       1.799746345397e+03 
       3.656185411004e-02       1.791857591190e+03 
       3.673123526728e-02       1.783972120987e+03 
       3.690170490573e-02       1.776089934561e+03 
       3.707329858020e-02       1.768211009579e+03 
       3.724605337357e-02       1.760335299614e+03 
       3.742000798277e-02       1.752462734470e+03 
       3.759520281107e-02       1.744593219504e+03 
       3.777168006678e-02       1.736726634795e+03 
       3.794948386932e-02       1.728862834312e+03 
       3.812866036305e-02       1.721001645589e+03 
       3.830925783966e-02       1.713142868391e+03 
       3.849132686981e-02       1.705286274254e+03 
       3.867492044505e-02       1.697431605087e+03 
       3.886009413077e-02       1.689578572451e+03 
       3.904690623132e-02       1.681726856651e+03 
       3.923541796850e-02       1.673876105001e+03 
       3.942569367469e-02       1.666025930495e+03 
       3.961780100203e-02       1.658175911202e+03 
       3.981181114934e-02       1.650325588101e+03 
       4.000779910857e-02       1.642474463162e+03 
       4.020584393279e-02       1.634621998339e+03 
       4.040602902800e-02       1.626767613072e+03 
       4.060844247132e-02       1.618910682256e+03 
       4.081317735852e-02       1.611050533842e+03 
       4.102033218399e-02       1.603186446677e+03 
       4.123001125700e-02       1.595317647431e+03 
       4.144232515826e-02       1.587443307421e+03 
       4.165739124165e-02       1.579562539634e+03 
       4.187533418645e-02       1.571674395043e+03 
       4.209628660616e-02       1.563777858583e+03 
       4.232038972103e-02       1.555871844367e+03 
       4.254779410223e-02       1.547955191400e+03 
       4.277866049705e-02       1.540026658033e+03 
       4.301316074553e-02       1.532084915572e+03 
       4.325147880110e-02       1.524128542107e+03 
       4.349381186909e-02       1.516156014860e+03 
       4.374037167993e-02       1.508165702075e+03 
       4.399138591598e-02       1.500155853725e+03 
       4.424709981454e-02       1.492124590881e+03 
       4.450777797324e-02       1.484069894077e+03 
       4.477370638864e-02       1.475989590332e+03 
       4.504519476440e-02       1.467881337393e+03 
       4.532257913194e-02       1.459742607291e+03 
       4.560622483468e-02       1.451570665859e+03 
       4.589652993655e-02       1.443362551318e+03 
       4.619392912750e-02       1.435115047004e+03 
       4.649889821301e-02       1.426824651841e+03 
       4.681195929293e-02       1.418487545156e+03 
       4.713368675644e-02       1.410099545324e+03 
       4.746471424782e-02       1.401656061355e+03 
       4.780574279117e-02       1.393152035772e+03 
       4.815755030506e-02       1.384581875853e+03 
       4.852100279111e-02       1.375939371257e+03 
       4.889706754763e-02       1.367217596124e+03 
       4.928682884406e-02       1.358408786916e+03 
       4.969150659966e-02       1.349504195129e+03 
       5.011247874622e-02       1.340493904269e+03 
       5.055130812887e-02       1.331366600969e+03 
       5.100977502094e-02       1.322109286958e+03 
       5.148991661133e-02       1.312706914040e+03 
       5.199407518142e-02       1.303141912846e+03 
       5.252495713939e-02       1.293393583126e+03 
       5.308570563847e-02       1.283437293441e+03 
       5.367999017981e-02       1.273243417838e+03 
       5.431211737519e-02       1.262775912979e+03 
       5.498716785166e-02       1.251990384340e+03 
       5.571116493929e-02       1.240831442686e+03 
       5.649128087862e-02       1.229229047768e+03 
       5.733608494728e-02       1.217093425153e+03 
       5.825583340198e-02       1.204307977242e+03 
       5.926279019453e-02       1.190719436150e+03 
