# Matter power spectrum P(k) at redshift z=0
# for k=1.0432e-05 to 1.4771 h/Mpc,
# number of wavenumbers equal to 615
#    1:k (h/Mpc)              2:P (Mpc/h)^3        
       1.043203858107e-05       5.025461770428e+01 
       2.328528460507e-05       1.092649126541e+02 
       3.618354992033e-05       1.673563677219e+02 
       4.916138897537e-05       2.251077055993e+02 
       6.225392542304e-05       2.828550564517e+02 
       7.549716396761e-05       3.408544265685e+02 
       8.892831214387e-05       3.993273906439e+02 
       1.025861162908e-04       4.584798989518e+02 
       1.165112160153e-04       5.185119884798e+02 
       1.307465214753e-04       5.796237245597e+02 
       1.453376178171e-04       6.420193793255e+02 
       1.603332010466e-04       7.059107280079e+02 
       1.757855494398e-04       7.715198957437e+02 
       1.917510342393e-04       8.390819857471e+02 
       2.082906727441e-04       9.088476186695e+02 
       2.254707258491e-04       9.810854564087e+02 
       2.433633404722e-04       1.056084747185e+03 
       2.620472348961e-04       1.134157900637e+03 
       2.816084215922e-04       1.215643075641e+03 
       3.021409572602e-04       1.300906735599e+03 
       3.237477032396e-04       1.390346093172e+03 
       3.465410707305e-04       1.484391326800e+03 
       3.706437140337e-04       1.583507403298e+03 
       3.961891210229e-04       1.688195283601e+03 
       4.233220333028e-04       1.798992223319e+03 
       4.521986094840e-04       1.916470809082e+03 
       4.829862249991e-04       2.041236302390e+03 
       5.158627833404e-04       2.173921806025e+03 
       5.510154004594e-04       2.315180741245e+03 
       5.886383220076e-04       2.465676149961e+03 
       6.289299492922e-04       2.626066442546e+03 
       6.720888920678e-04       2.796987426356e+03 
       7.183090410515e-04       2.979030791417e+03 
       7.677737624294e-04       3.172719697090e+03 
       8.206494546525e-04       3.378482662154e+03 
       8.770788574211e-04       3.596627534094e+03 
       9.371746353052e-04       3.827317784063e+03 
       1.001013838037e-03       4.070553603384e+03 
       1.068633832593e-03       4.326160141838e+03 
       1.140030190423e-03       4.593784664191e+03 
       1.215156804223e-03       4.872903446275e+03 
       1.293928239099e-03       5.162838036019e+03 
       1.376224049186e-03       5.462779309725e+03 
       1.461894571580e-03       5.771816830747e+03 
       1.477104874446e-03       5.826344271554e+03 
       1.550767586553e-03       6.088970580267e+03 
       1.642655219412e-03       6.413222252568e+03 
       1.737360539541e-03       6.743543887862e+03 
       1.834683451791e-03       7.078922417153e+03 
       1.934425635539e-03       7.418379455045e+03 
       2.036394435199e-03       7.760974863114e+03 
       2.140405722997e-03       8.105841850336e+03 
       2.246285833469e-03       8.452186028084e+03 
       2.353872711664e-03       8.799273374145e+03 
       2.463016431031e-03       9.146438623955e+03 
       2.573579231335e-03       9.493083271387e+03 
       2.685435210008e-03       9.838672300434e+03 
       2.798469778244e-03       1.018273013347e+04 
       2.912578970395e-03       1.052483611598e+04 
       3.027668674155e-03       1.086461977690e+04 
       3.143653830990e-03       1.120175608493e+04 
       3.260457641549e-03       1.153596091037e+04 
       3.378010799299e-03       1.186698679622e+04 
       3.496250766932e-03       1.219461912211e+04 
       3.615121103705e-03       1.251867257457e+04 
       3.734570847362e-03       1.283898794692e+04 
       3.854553951169e-03       1.315542927321e+04 
       3.975028774544e-03       1.346788128190e+04 
       4.095957624482e-03       1.377624713624e+04 
       4.217306344273e-03       1.408044643006e+04 
       4.339043945649e-03       1.438041332508e+04 
       4.461142280428e-03       1.467609491520e+04 
       4.583575747808e-03       1.496744971222e+04 
       4.706321033667e-03       1.525444631836e+04 
       4.829356878457e-03       1.553706253578e+04 
       4.952663870589e-03       1.581528358578e+04 
       5.076224262466e-03       1.608910153300e+04 
       5.200021806610e-03       1.635851444085e+04 
       5.324041609620e-03       1.662352406053e+04 
       5.448270001908e-03       1.688413908199e+04 
       5.572694421416e-03       1.714037251162e+04 
       5.697303309714e-03       1.739224009409e+04 
       5.822086019068e-03       1.763976081936e+04 
       5.947032729220e-03       1.788295656170e+04 
       6.072134372793e-03       1.812185176207e+04 
       6.197382568340e-03       1.835647313065e+04 
       6.322769560182e-03       1.858684938303e+04 
       6.448288164288e-03       1.881301101930e+04 
       6.573931719522e-03       1.903498999228e+04 
       6.699694043674e-03       1.925281954608e+04 
       6.825569393764e-03       1.946653400405e+04 
       6.951552430144e-03       1.967616857063e+04 
       7.077638184013e-03       1.988175917205e+04 
       7.203822027968e-03       2.008334231351e+04 
       7.330099649295e-03       2.028095496063e+04 
       7.456467025692e-03       2.047463445221e+04 
       7.582920403203e-03       2.066441841823e+04 
       7.709456276120e-03       2.085034472990e+04 
       7.836071368659e-03       2.103245145035e+04 
       7.962762618252e-03       2.121077679430e+04 
       8.089527160268e-03       2.138535909765e+04 
       8.216362314053e-03       2.155623677251e+04 
       8.343265570144e-03       2.172344827522e+04 
       8.470234578556e-03       2.188703205701e+04 
       8.597267138036e-03       2.204702651951e+04 
       8.724361186198e-03       2.220346996719e+04 
       8.851514790457e-03       2.235640055344e+04 
       8.978726139690e-03       2.250585624208e+04 
       9.105993536559e-03       2.265187475846e+04 
       9.233315390438e-03       2.279449356536e+04 
       9.360690210890e-03       2.293374983404e+04 
       9.488116601645e-03       2.306968044054e+04 
       9.615593255045e-03       2.320232196467e+04 
       9.743118946900e-03       2.333171069863e+04 
       9.870692531740e-03       2.345788266211e+04 
       9.998312938410e-03       2.358087361261e+04 
       1.012597916600e-02       2.370071906314e+04 
       1.025369028008e-02       2.381745428744e+04 
       1.038144540917e-02       2.393111432598e+04 
       1.050924374152e-02       2.404173398085e+04 
       1.063708452211e-02       2.414934780639e+04 
       1.076496704979e-02       2.425399008893e+04 
       1.089289067476e-02       2.435569482405e+04 
       1.102085479608e-02       2.445449569295e+04 
       1.114885885948e-02       2.455042603668e+04 
       1.127690235525e-02       2.464351883968e+04 
       1.140498481630e-02       2.473380671838e+04 
       1.153310581634e-02       2.482132192273e+04 
       1.166126496823e-02       2.490609634750e+04 
       1.178946192239e-02       2.498816155678e+04 
       1.191769636537e-02       2.506754881458e+04 
       1.204596801847e-02       2.514428912854e+04 
       1.217427663650e-02       2.521841328034e+04 
       1.230262200661e-02       2.528995186570e+04 
       1.243100394721e-02       2.535893532419e+04 
       1.255942230695e-02       2.542539395634e+04 
       1.268787696377e-02       2.548935794126e+04 
       1.281636782407e-02       2.555085734745e+04 
       1.294489482186e-02       2.560992211807e+04 
       1.307345791807e-02       2.566658205919e+04 
       1.320205709980e-02       2.572086669503e+04 
       1.333069237971e-02       2.577280489817e+04 
       1.345936379546e-02       2.582242444979e+04 
       1.358807140914e-02       2.586975218632e+04 
       1.371681530676e-02       2.591481500806e+04 
       1.384559559786e-02       2.595763949838e+04 
       1.397441241502e-02       2.599825422024e+04 
       1.410326591355e-02       2.603668620317e+04 
       1.423215627112e-02       2.607296271444e+04 
       1.436108368744e-02       2.610711068275e+04 
       1.449004838404e-02       2.613915673861e+04 
       1.461905060397e-02       2.616912725021e+04 
       1.474809061164e-02       2.619704834791e+04 
       1.477104874446e-02       2.620180233473e+04 
       1.487716869259e-02       2.622294593961e+04 
       1.500628515338e-02       2.624684572006e+04 
       1.513544032141e-02       2.626877317719e+04 
       1.526463454487e-02       2.628875359727e+04 
       1.539386819263e-02       2.630681206693e+04 
       1.552314165415e-02       2.632297347755e+04 
       1.565245533954e-02       2.633726252723e+04 
       1.578180967942e-02       2.634970372341e+04 
       1.591120512506e-02       2.636032138516e+04 
       1.604064214830e-02       2.636913964512e+04 
       1.617012124165e-02       2.637618245181e+04 
       1.629964291838e-02       2.638147357145e+04 
       1.642920771253e-02       2.638503659002e+04 
       1.655881617911e-02       2.638689491492e+04 
       1.668846889415e-02       2.638707177692e+04 
       1.681816645488e-02       2.638559023165e+04 
       1.694790947987e-02       2.638247316157e+04 
       1.707769860923e-02       2.637774327766e+04 
       1.720753450479e-02       2.637142312059e+04 
       1.733741785028e-02       2.636353506271e+04 
       1.746734935164e-02       2.635410130917e+04 
       1.759732973717e-02       2.634314389934e+04 
       1.772735975785e-02       2.633068470758e+04 
       1.785744018763e-02       2.631674544539e+04 
       1.798757182365e-02       2.630134766196e+04 
       1.811775548665e-02       2.628451274539e+04 
       1.824799202119e-02       2.626626192329e+04 
       1.837828229612e-02       2.624661626455e+04 
       1.850862720481e-02       2.622559667917e+04 
       1.863902766562e-02       2.620322392016e+04 
       1.876948462229e-02       2.617951858361e+04 
       1.889999904427e-02       2.615450110951e+04 
       1.903057192727e-02       2.612819178317e+04 
       1.916120429361e-02       2.610061073436e+04 
       1.929189719273e-02       2.607177793950e+04 
       1.942265170166e-02       2.604171322160e+04 
       1.955346892553e-02       2.601043625003e+04 
       1.968434999807e-02       2.597796654279e+04 
       1.981529608219e-02       2.594432346476e+04 
       1.994630837048e-02       2.590952622928e+04 
       2.007738808584e-02       2.587359389924e+04 
       2.020853648205e-02       2.583654538577e+04 
       2.033975484437e-02       2.579839944961e+04 
       2.047104449025e-02       2.575917470149e+04 
       2.060240676988e-02       2.571888960156e+04 
       2.073384306699e-02       2.567756245954e+04 
       2.086535479945e-02       2.563521143631e+04 
       2.099694342008e-02       2.559185454290e+04 
       2.112861041733e-02       2.554750964026e+04 
       2.126035731612e-02       2.550219444061e+04 
       2.139218567858e-02       2.545592650688e+04 
       2.152409710492e-02       2.540872325163e+04 
       2.165609323425e-02       2.536060193949e+04 
       2.178817574547e-02       2.531157968574e+04 
       2.192034635817e-02       2.526167345562e+04 
       2.205260683358e-02       2.521090006568e+04 
       2.218495897551e-02       2.515927618339e+04 
       2.231740463135e-02       2.510681832668e+04 
       2.244994569310e-02       2.505354286417e+04 
       2.258258409840e-02       2.499946601493e+04 
       2.271532183168e-02       2.494460384857e+04 
       2.284816092521e-02       2.488897228564e+04 
       2.298110346029e-02       2.483258709606e+04 
       2.311415156846e-02       2.477546389992e+04 
       2.324730743271e-02       2.471761816820e+04 
       2.338057328874e-02       2.465906522190e+04 
       2.351395142631e-02       2.459982023054e+04 
       2.364744419055e-02       2.453989821387e+04 
       2.378105398339e-02       2.447931404161e+04 
       2.391478326498e-02       2.441808243297e+04 
       2.404863455516e-02       2.435621795450e+04 
       2.418261043504e-02       2.429373502377e+04 
       2.431671354853e-02       2.423064790685e+04 
       2.445094660401e-02       2.416697071784e+04 
       2.458531237602e-02       2.410271741947e+04 
       2.471981370695e-02       2.403790182291e+04 
       2.485445350890e-02       2.397253758804e+04 
       2.498923476551e-02       2.390663822241e+04 
       2.512416053388e-02       2.384021708149e+04 
       2.525923394656e-02       2.377328736707e+04 
       2.539445821359e-02       2.370586213079e+04 
       2.552983662461e-02       2.363795427062e+04 
       2.566537255109e-02       2.356957653111e+04 
       2.580106944856e-02       2.350074150400e+04 
       2.593693085894e-02       2.343146162887e+04 
       2.607296041299e-02       2.336174919115e+04 
       2.620916183282e-02       2.329161632313e+04 
       2.634553893445e-02       2.322107500242e+04 
       2.648209563053e-02       2.315013705398e+04 
       2.661883593309e-02       2.307881414898e+04 
       2.675576395642e-02       2.300711780357e+04 
       2.689288392006e-02       2.293505938066e+04 
       2.703020015191e-02       2.286265008825e+04 
       2.716771709136e-02       2.278990097954e+04 
       2.730543929267e-02       2.271682295322e+04 
       2.744337142837e-02       2.264342675380e+04 
       2.758151829283e-02       2.256972297029e+04 
       2.771988480597e-02       2.249572203603e+04 
       2.785847601707e-02       2.242143423033e+04 
       2.799729710875e-02       2.234686967659e+04 
       2.813635340113e-02       2.227203834227e+04 
       2.827565035607e-02       2.219695003980e+04 
       2.841519358167e-02       2.212161442532e+04 
       2.855498883684e-02       2.204604100003e+04 
       2.869504203616e-02       2.197023910738e+04 
       2.883535925484e-02       2.189421793546e+04 
       2.897594673395e-02       2.181798651711e+04 
       2.911681088576e-02       2.174155372639e+04 
       2.925795829944e-02       2.166492828175e+04 
       2.939939574684e-02       2.158811874555e+04 
       2.954113018863e-02       2.151113352215e+04 
       2.968316878061e-02       2.143398085834e+04 
       2.982551888033e-02       2.135666884415e+04 
       2.996818805398e-02       2.127920541227e+04 
       3.011118408356e-02       2.120159833684e+04 
       3.025451497435e-02       2.112385523357e+04 
       3.039818896276e-02       2.104598356118e+04 
       3.054221452441e-02       2.096799061896e+04 
       3.068660038271e-02       2.088988354683e+04 
       3.083135551769e-02       2.081166932666e+04 
       3.097648917531e-02       2.073335478001e+04 
       3.112201087711e-02       2.065494656949e+04 
       3.126793043044e-02       2.057645119626e+04 
       3.141425793895e-02       2.049787500179e+04 
       3.156100381380e-02       2.041922416713e+04 
       3.170817878519e-02       2.034050471027e+04 
       3.185579391457e-02       2.026172248861e+04 
       3.200386060738e-02       2.018288319639e+04 
       3.215239062641e-02       2.010399236579e+04 
       3.230139610581e-02       2.002505536416e+04 
       3.245088956576e-02       1.994607739520e+04 
       3.260088392795e-02       1.986706349802e+04 
       3.275139253172e-02       1.978801854552e+04 
       3.290242915114e-02       1.970894724463e+04 
       3.305400801284e-02       1.962985413364e+04 
       3.320614381485e-02       1.955074358420e+04 
       3.335885174638e-02       1.947161979877e+04 
       3.351214750866e-02       1.939248680760e+04 
       3.366604733691e-02       1.931334847062e+04 
       3.382056802339e-02       1.923420847582e+04 
       3.397572694186e-02       1.915507033591e+04 
       3.413154207327e-02       1.907593738841e+04 
       3.428803203290e-02       1.899681279497e+04 
       3.444521609905e-02       1.891769953691e+04 
       3.460311424334e-02       1.883860041659e+04 
       3.476174716278e-02       1.875951805385e+04 
       3.492113631364e-02       1.868045488342e+04 
       3.508130394737e-02       1.860141315557e+04 
       3.524227314868e-02       1.852239492944e+04 
       3.540406787577e-02       1.844340207564e+04 
       3.556671300321e-02       1.836443626873e+04 
       3.573023436729e-02       1.828549898845e+04 
       3.589465881430e-02       1.820659151373e+04 
       3.606001425181e-02       1.812771492141e+04 
       3.622632970325e-02       1.804887008112e+04 
       3.639363536599e-02       1.797005765232e+04 
       3.656196267328e-02       1.789127808053e+04 
       3.673134436024e-02       1.781253159413e+04 
       3.690181453434e-02       1.773381819664e+04 
       3.707340875063e-02       1.765513766343e+04 
       3.724616409219e-02       1.757648953777e+04 
       3.742011925624e-02       1.749787312308e+04 
       3.759531464628e-02       1.741928747822e+04 
       3.777179247091e-02       1.734073140888e+04 
       3.794959684984e-02       1.726220346221e+04 
       3.812877392774e-02       1.718370191995e+04 
       3.830937199661e-02       1.710522478760e+04 
       3.849144162747e-02       1.702676978771e+04 
       3.867503581223e-02       1.694833434908e+04 
       3.886021011665e-02       1.686991559751e+04 
       3.904702284549e-02       1.679151034413e+04 
       3.923553522098e-02       1.671311507395e+04 
       3.942581157596e-02       1.663472592851e+04 
       3.961791956304e-02       1.655633870116e+04 
       3.981193038156e-02       1.647794881348e+04 
       4.000791902403e-02       1.639955130082e+04 
       4.020596454409e-02       1.632114079680e+04 
       4.040615034836e-02       1.624271151213e+04 
       4.060856451464e-02       1.616425721251e+04 
       4.081330013938e-02       1.608577119606e+04 
       4.102045571776e-02       1.600724627042e+04 
       4.123013555984e-02       1.592867472226e+04 
       4.144245024721e-02       1.585004828715e+04 
       4.165751713469e-02       1.577135811887e+04 
       4.187546090258e-02       1.569259475132e+04 
       4.209641416544e-02       1.561374806030e+04 
       4.232051814471e-02       1.553480721628e+04 
       4.254792341284e-02       1.545576063860e+04 
       4.277879071846e-02       1.537659594211e+04 
       4.301329190313e-02       1.529729987605e+04 
       4.325161092188e-02       1.521785825715e+04 
       4.349394498181e-02       1.513825589759e+04 
       4.374050581526e-02       1.505847652272e+04 
       4.399152110668e-02       1.497850267493e+04 
       4.424723609568e-02       1.489831561503e+04 
       4.450791538241e-02       1.481789520205e+04 
       4.477384496620e-02       1.473721975908e+04 
       4.504533455374e-02       1.465626592607e+04 
       4.532272017985e-02       1.457500848760e+04 
       4.560636719167e-02       1.449342017497e+04 
       4.589667365730e-02       1.441147144311e+04 
       4.619407427128e-02       1.432913020891e+04 
       4.649904484429e-02       1.424636155255e+04 
       4.681210748194e-02       1.416312736443e+04 
       4.713383657993e-02       1.407938593473e+04 
       4.746486578988e-02       1.399509147168e+04 
       4.780589614417e-02       1.391019352656e+04 
       4.815770557083e-02       1.382463631226e+04 
       4.852116008224e-02       1.373835788431e+04 
       4.889722698900e-02       1.365128915149e+04 
       4.928699057475e-02       1.356335267004e+04 
       4.969167077509e-02       1.347446116883e+04 
       5.011264554079e-02       1.338451571760e+04 
       5.055147773913e-02       1.329340344979e+04 
       5.100994766934e-02       1.320099468401e+04 
       5.149009255085e-02       1.310713927638e+04 
       5.199425470117e-02       1.301166192237e+04 
       5.252514057145e-02       1.291435606246e+04 
       5.308589336629e-02       1.281497589216e+04 
       5.368018264861e-02       1.271322574595e+04 
       5.431231510466e-02       1.260874587658e+04 
       5.498737145176e-02       1.250109315331e+04 
       5.571137512954e-02       1.238971463951e+04 
       5.649149851154e-02       1.227391107870e+04 
       5.733631103649e-02       1.215278609419e+04 
       5.825606915438e-02       1.202517537189e+04 
       5.926303704519e-02       1.188954824857e+04 
