# Matter power spectrum P(k) at redshift z=3
# for k=1.0432e-05 to 1.4771 h/Mpc,
# number of wavenumbers equal to 615
#    1:k (h/Mpc)              2:P (Mpc/h)^3        
       1.043203858107e-05       5.012919688153e+00 
       2.326513117514e-05       1.089012559940e+01 
       3.614307526797e-05       1.667592752614e+01 
       4.910026263784e-05       2.242789671763e+01 
       6.217165020700e-05       2.817948539290e+01 
       7.539306943970e-05       3.395617574300e+01 
       8.880154556962e-05       3.978002489173e+01 
       1.024356308733e-04       4.567153639663e+01 
       1.163357562383e-04       5.165062698828e+01 
       1.305446053092e-04       5.773721835472e+01 
       1.451075154993e-04       6.395165359501e+01 
       1.600729101052e-04       7.031502603356e+01 
       1.754927655864e-04       7.684946348984e+01 
       1.914231177275e-04       8.357839102394e+01 
       2.079246097671e-04       9.052678513461e+01 
       2.250630845536e-04       9.772142676763e+01 
       2.429102211977e-04       1.051911568747e+02 
       2.615442143275e-04       1.129671354783e+02 
       2.810504906632e-04       1.210831026120e+02 
       3.015224528834e-04       1.295756367164e+02 
       3.230622343046e-04       1.384844027983e+02 
       3.457814393444e-04       1.478523786757e+02 
       3.698018337127e-04       1.577260427790e+02 
       3.952559345307e-04       1.681555011705e+02 
       4.222874340956e-04       1.791945247544e+02 
       4.510513722693e-04       1.909004603645e+02 
       4.817139527057e-04       2.033339721894e+02 
       5.144518796923e-04       2.165585639715e+02 
       5.494510791255e-04       2.306398293442e+02 
       5.869046645521e-04       2.456443799814e+02 
       6.270100243598e-04       2.616384118540e+02 
       6.699649467405e-04       2.786858918099e+02 
       7.159627714806e-04       2.968463820746e+02 
       7.651866642641e-04       3.161725691061e+02 
       8.178032445525e-04       3.367076218637e+02 
       8.739559459519e-04       3.584825645255e+02 
       9.337586205446e-04       3.815138969751e+02 
       9.972899807704e-04       4.058017175980e+02 
       1.064589470605e-03       4.313285839132e+02 
       1.135655052861e-03       4.580592819613e+02 
       1.210443197488e-03       4.859415720087e+02 
       1.288871091374e-03       5.149078553189e+02 
       1.370820818204e-03       5.448775913772e+02 
       1.456145035873e-03       5.757602127836e+02 
       1.477104874446e-03       5.832965867602e+02 
       1.544673551056e-03       6.074582519482e+02 
       1.636220170765e-03       6.398704111142e+02 
       1.730589284888e-03       6.728943631516e+02 
       1.827581769141e-03       7.064291456426e+02 
       1.926999955810e-03       7.403770855033e+02 
       2.028651567909e-03       7.746442647640e+02 
       2.132352630499e-03       8.091434222803e+02 
       2.237929453265e-03       8.437947649063e+02 
       2.345219822834e-03       8.785242406747e+02 
       2.454073558912e-03       9.132646006450e+02 
       2.564352583901e-03       9.479552707435e+02 
       2.675930639516e-03       9.825420708414e+02 
       2.788692762341e-03       1.016976824893e+03 
       2.902534607696e-03       1.051216902470e+03 
       3.017361690205e-03       1.085224728062e+03 
       3.133088591343e-03       1.118967289077e+03 
       3.249638169456e-03       1.152415666258e+03 
       3.366940796107e-03       1.185544601780e+03 
       3.484933633804e-03       1.218332111879e+03 
       3.603559963667e-03       1.250759143693e+03 
       3.722768566997e-03       1.282809271186e+03 
       3.842513161488e-03       1.314468422972e+03 
       3.962751890764e-03       1.345724635214e+03 
       4.083446864542e-03       1.376567824762e+03 
       4.204563746020e-03       1.406989580212e+03 
       4.326071382677e-03       1.436982970650e+03 
       4.447941476604e-03       1.466542372873e+03 
       4.570148290550e-03       1.495663317806e+03 
       4.692668386028e-03       1.524342355834e+03 
       4.815480390118e-03       1.552576939574e+03 
       4.938564787828e-03       1.580365321577e+03 
       5.061903737196e-03       1.607706464099e+03 
       5.185480904569e-03       1.634599958398e+03 
       5.309281317783e-03       1.661045821723e+03 
       5.433291235198e-03       1.687044703563e+03 
       5.557498028783e-03       1.712597792474e+03 
       5.681890079641e-03       1.737706537591e+03 
       5.806456684553e-03       1.762372724910e+03 
       5.931187972304e-03       1.786598440027e+03 
       6.056074828658e-03       1.810386036675e+03 
       6.181108829032e-03       1.833738109782e+03 
       6.306282177997e-03       1.856657470064e+03 
       6.431587654842e-03       1.879147125611e+03 
       6.557018564555e-03       1.901210248322e+03 
       6.682568693598e-03       1.922850156500e+03 
       6.808232269985e-03       1.944070292946e+03 
       6.934003927184e-03       1.964874203117e+03 
       7.059878671447e-03       1.985265517997e+03 
       7.185851852196e-03       2.005247939240e+03 
       7.311919135159e-03       2.024825227242e+03 
       7.438076477964e-03       2.044001192899e+03 
       7.564320107944e-03       2.062779689815e+03 
       7.690646501926e-03       2.081164608888e+03 
       7.817052367814e-03       2.099159872770e+03 
       7.943534627775e-03       2.116769430174e+03 
       8.070090402888e-03       2.133997251234e+03 
       8.196716999100e-03       2.150847321510e+03 
       8.323411894375e-03       2.167323637297e+03 
       8.450172726910e-03       2.183430200470e+03 
       8.576997284339e-03       2.199171025961e+03 
       8.703883493807e-03       2.214550252726e+03 
       8.830829412862e-03       2.229572274357e+03 
       8.957833221065e-03       2.244240493364e+03 
       9.084893212279e-03       2.258558867860e+03 
       9.212007787551e-03       2.272531346129e+03 
       9.339175448556e-03       2.286161859941e+03 
       9.466394791550e-03       2.299454318798e+03 
       9.593664501775e-03       2.312412608353e+03 
       9.720983348297e-03       2.325040589508e+03 
       9.848350179225e-03       2.337342099058e+03 
       9.975763917292e-03       2.349320949215e+03 
       1.010322355576e-02       2.360980928883e+03 
       1.023072815461e-02       2.372325803390e+03 
       1.035827683707e-02       2.383359315199e+03 
       1.048586878628e-02       2.394085183262e+03 
       1.061350324232e-02       2.404507102830e+03 
       1.074117949938e-02       2.414628743785e+03 
       1.086889690313e-02       2.424453748990e+03 
       1.099665484833e-02       2.433985732291e+03 
       1.112445277652e-02       2.443228276146e+03 
       1.125229017396e-02       2.452184929819e+03 
       1.138016656969e-02       2.460859207602e+03 
       1.150808153366e-02       2.469254588250e+03 
       1.163603467509e-02       2.477374514901e+03 
       1.176402564087e-02       2.485222396443e+03 
       1.189205411414e-02       2.492801609243e+03 
       1.202011981286e-02       2.500115500706e+03 
       1.214822248862e-02       2.507167391481e+03 
       1.227636192541e-02       2.513960579104e+03 
       1.240453793856e-02       2.520498340767e+03 
       1.253275037370e-02       2.526783935362e+03 
       1.266099910585e-02       2.532820605435e+03 
       1.278928403852e-02       2.538611578091e+03 
       1.291760510290e-02       2.544160064826e+03 
       1.304596225713e-02       2.549469260692e+03 
       1.317435548559e-02       2.554542335445e+03 
       1.330278479826e-02       2.559382405489e+03 
       1.343125023014e-02       2.563992492388e+03 
       1.355975184070e-02       2.568375517717e+03 
       1.368828971338e-02       2.572534375898e+03 
       1.381686395516e-02       2.576471937024e+03 
       1.394547469608e-02       2.580191238992e+03 
       1.407412208895e-02       2.583695167319e+03 
       1.420280630894e-02       2.586986643625e+03 
       1.433152755329e-02       2.590068548537e+03 
       1.446028604105e-02       2.592943728677e+03 
       1.458908201282e-02       2.595615000063e+03 
       1.471791573057e-02       2.598085150422e+03 
       1.477104874446e-02       2.599045752951e+03 
       1.484678747739e-02       2.600356940685e+03 
       1.497569755739e-02       2.602433105921e+03 
       1.510464629555e-02       2.604316355903e+03 
       1.523363403759e-02       2.606009375539e+03 
       1.536266114994e-02       2.607514825239e+03 
       1.549172801963e-02       2.608835341040e+03 
       1.562083505426e-02       2.609973535042e+03 
       1.574998268202e-02       2.610931995456e+03 
       1.587917135167e-02       2.611713286958e+03 
       1.600840153254e-02       2.612319950827e+03 
       1.613767371464e-02       2.612754505157e+03 
       1.626698840869e-02       2.613019445031e+03 
       1.639634614619e-02       2.613117242763e+03 
       1.652574747955e-02       2.613050348056e+03 
       1.665519298221e-02       2.612821188216e+03 
       1.678468324875e-02       2.612432168326e+03 
       1.691421889511e-02       2.611885671440e+03 
       1.704380055870e-02       2.611184058766e+03 
       1.717342889862e-02       2.610329669851e+03 
       1.730310459587e-02       2.609324822757e+03 
       1.743282835358e-02       2.608171814259e+03 
       1.756260089725e-02       2.606872920007e+03 
       1.769242297500e-02       2.605430394639e+03 
       1.782229535785e-02       2.603846472008e+03 
       1.795221884003e-02       2.602123365361e+03 
       1.808219423926e-02       2.600263267363e+03 
       1.821222239710e-02       2.598268350444e+03 
       1.834230417929e-02       2.596140766705e+03 
       1.847244047609e-02       2.593882648295e+03 
       1.860263220268e-02       2.591496107384e+03 
       1.873288029955e-02       2.588983236367e+03 
       1.886318573289e-02       2.586346108011e+03 
       1.899354949503e-02       2.583586775541e+03 
       1.912397260491e-02       2.580707272804e+03 
       1.925445610849e-02       2.577709614333e+03 
       1.938500107928e-02       2.574595795579e+03 
       1.951560861882e-02       2.571367792873e+03 
       1.964627985718e-02       2.568027563665e+03 
       1.977701595353e-02       2.564577046602e+03 
       1.990781809667e-02       2.561018161578e+03 
       2.003868750563e-02       2.557352809963e+03 
       2.016962543022e-02       2.553582874572e+03 
       2.030063315170e-02       2.549710219863e+03 
       2.043171198338e-02       2.545736691941e+03 
       2.056286327130e-02       2.541664118736e+03 
       2.069408839487e-02       2.537494310072e+03 
       2.082538876763e-02       2.533229057728e+03 
       2.095676583792e-02       2.528870135600e+03 
       2.108822108966e-02       2.524419299644e+03 
       2.121975604311e-02       2.519878288111e+03 
       2.135137225567e-02       2.515248821512e+03 
       2.148307132269e-02       2.510532602794e+03 
       2.161485487835e-02       2.505731317372e+03 
       2.174672459649e-02       2.500846633146e+03 
       2.187868219153e-02       2.495880200645e+03 
       2.201072941941e-02       2.490833653083e+03 
       2.214286807856e-02       2.485708606446e+03 
       2.227510001084e-02       2.480506659504e+03 
       2.240742710260e-02       2.475229393880e+03 
       2.253985128574e-02       2.469878374189e+03 
       2.267237453875e-02       2.464455148039e+03 
       2.280499888789e-02       2.458961246062e+03 
       2.293772640829e-02       2.453398181981e+03 
       2.307055922515e-02       2.447767452778e+03 
       2.320349951500e-02       2.442070538658e+03 
       2.333654950695e-02       2.436308903044e+03 
       2.346971148395e-02       2.430483992697e+03 
       2.360298778424e-02       2.424597237776e+03 
       2.373638080261e-02       2.418650051737e+03 
       2.386989299197e-02       2.412643832124e+03 
       2.400352686472e-02       2.406579959139e+03 
       2.413728499432e-02       2.400459797084e+03 
       2.427117001691e-02       2.394284693847e+03 
       2.440518463286e-02       2.388055980897e+03 
       2.453933160849e-02       2.381774973406e+03 
       2.467361377782e-02       2.375442970244e+03 
       2.480803404435e-02       2.369061254099e+03 
       2.494259538288e-02       2.362631091524e+03 
       2.507730084147e-02       2.356153733016e+03 
       2.521215354341e-02       2.349630412785e+03 
       2.534715668922e-02       2.343062349081e+03 
       2.548231355881e-02       2.336450745135e+03 
       2.561762751365e-02       2.329796785029e+03 
       2.575310199898e-02       2.323101640755e+03 
       2.588874054624e-02       2.316366464801e+03 
       2.602454677537e-02       2.309592398007e+03 
       2.616052439741e-02       2.302780561892e+03 
       2.629667721700e-02       2.295932063151e+03 
       2.643300913512e-02       2.289047992800e+03 
       2.656952415181e-02       2.282129426220e+03 
       2.670622636905e-02       2.275177422684e+03 
       2.684311999376e-02       2.268193026004e+03 
       2.698020934083e-02       2.261177264191e+03 
       2.711749883634e-02       2.254131149644e+03 
       2.725499302082e-02       2.247055679149e+03 
       2.739269655274e-02       2.239951833798e+03 
       2.753061421199e-02       2.232820579108e+03 
       2.766875090360e-02       2.225662865069e+03 
       2.780711166157e-02       2.218479626063e+03 
       2.794570165279e-02       2.211271780950e+03 
       2.808452618118e-02       2.204040233080e+03 
       2.822359069199e-02       2.196785870285e+03 
       2.836290077616e-02       2.189509564935e+03 
       2.850246217500e-02       2.182212173914e+03 
       2.864228078496e-02       2.174894538582e+03 
       2.878236266258e-02       2.167557484991e+03 
       2.892271402969e-02       2.160201823643e+03 
       2.906334127877e-02       2.152828349568e+03 
       2.920425097860e-02       2.145437842519e+03 
       2.934544988001e-02       2.138031066704e+03 
       2.948694492203e-02       2.130608770913e+03 
       2.962874323814e-02       2.123171688614e+03 
       2.977085216289e-02       2.115720537705e+03 
       2.991327923874e-02       2.108256020791e+03 
       3.005603222321e-02       2.100778824962e+03 
       3.019911909636e-02       2.093289621890e+03 
       3.034254806852e-02       2.085789067826e+03 
       3.048632758846e-02       2.078277803455e+03 
       3.063046635181e-02       2.070756454082e+03 
       3.077497330995e-02       2.063225629437e+03 
       3.091985767921e-02       2.055685923718e+03 
       3.106512895057e-02       2.048137915641e+03 
       3.121079689973e-02       2.040582168189e+03 
       3.135687159770e-02       2.033019228853e+03 
       3.150336342181e-02       2.025449629363e+03 
       3.165028306733e-02       2.017873885770e+03 
       3.179764155953e-02       2.010292498381e+03 
       3.194545026642e-02       2.002705951639e+03 
       3.209372091205e-02       1.995114714172e+03 
       3.224246559042e-02       1.987519238566e+03 
       3.239169678015e-02       1.979919961511e+03 
       3.254142735985e-02       1.972317303487e+03 
       3.269167062420e-02       1.964711668901e+03 
       3.284244030096e-02       1.957103445842e+03 
       3.299375056871e-02       1.949493005947e+03 
       3.314561607564e-02       1.941880704576e+03 
       3.329805195921e-02       1.934266880227e+03 
       3.345107386692e-02       1.926651854874e+03 
       3.360469797814e-02       1.919035933593e+03 
       3.375894102713e-02       1.911419404368e+03 
       3.391382032731e-02       1.903802538093e+03 
       3.406935379688e-02       1.896185588299e+03 
       3.422555998583e-02       1.888568791012e+03 
       3.438245810449e-02       1.880952364465e+03 
       3.454006805369e-02       1.873336509110e+03 
       3.469841045668e-02       1.865721407067e+03 
       3.485750669285e-02       1.858107222210e+03 
       3.501737893345e-02       1.850494099641e+03 
       3.517805017950e-02       1.842882165552e+03 
       3.533954430188e-02       1.835271526986e+03 
       3.550188608390e-02       1.827662271222e+03 
       3.566510126651e-02       1.820054465847e+03 
       3.582921659630e-02       1.812448158036e+03 
       3.599425987654e-02       1.804843374349e+03 
       3.616026002147e-02       1.797240120300e+03 
       3.632724711413e-02       1.789638379603e+03 
       3.649525246790e-02       1.782038114254e+03 
       3.666430869223e-02       1.774439263480e+03 
       3.683444976272e-02       1.766841743436e+03 
       3.700571109594e-02       1.759245446667e+03 
       3.717812962950e-02       1.751650241146e+03 
       3.735174390764e-02       1.744055969857e+03 
       3.752659417290e-02       1.736462450116e+03 
       3.770272246444e-02       1.728869472423e+03 
       3.788017272340e-02       1.721276799871e+03 
       3.805899090614e-02       1.713684167282e+03 
       3.823922510595e-02       1.706091279920e+03 
       3.842092568395e-02       1.698497812653e+03 
       3.860414541020e-02       1.690903408743e+03 
       3.878893961572e-02       1.683307678607e+03 
       3.897536635672e-02       1.675710198352e+03 
       3.916348659197e-02       1.668110508617e+03 
       3.935336437481e-02       1.660508112447e+03 
       3.954506706107e-02       1.652902474262e+03 
       3.973866553460e-02       1.645293017549e+03 
       3.993423445217e-02       1.637679123074e+03 
       4.013185250983e-02       1.630060126659e+03 
       4.033160273282e-02       1.622435316732e+03 
       4.053357279179e-02       1.614803931855e+03 
       4.073785534803e-02       1.607165157933e+03 
       4.094454843094e-02       1.599518125158e+03 
       4.115375585153e-02       1.591861904560e+03 
       4.136558765592e-02       1.584195504413e+03 
       4.158016062364e-02       1.576517866407e+03 
       4.179759881597e-02       1.568827861008e+03 
       4.201803418058e-02       1.561124282627e+03 
       4.224160721918e-02       1.553405844442e+03 
       4.246846772639e-02       1.545671172460e+03 
       4.269877560878e-02       1.537918799021e+03 
       4.293270179479e-02       1.530147155434e+03 
       4.317042924752e-02       1.522354564100e+03 
       4.341215409459e-02       1.514539229552e+03 
       4.365808689130e-02       1.506699228453e+03 
       4.390845403620e-02       1.498832498506e+03 
       4.416349936107e-02       1.490936825708e+03 
       4.442348592154e-02       1.483009830426e+03 
       4.468869801859e-02       1.475048951382e+03 
       4.495944348705e-02       1.467051427593e+03 
       4.523605629354e-02       1.459014277811e+03 
       4.551889949431e-02       1.450934277059e+03 
       4.580836861308e-02       1.442807929896e+03 
       4.610489551056e-02       1.434631439389e+03 
       4.640895283201e-02       1.426400671557e+03 
       4.672105913642e-02       1.418111114019e+03 
       4.704178483298e-02       1.409757827714e+03 
       4.737175907736e-02       1.401335390501e+03 
       4.771167781361e-02       1.392837830595e+03 
       4.806231318978e-02       1.384258547781e+03 
       4.842452462729e-02       1.375590219592e+03 
       4.879927189076e-02       1.366824688593e+03 
       4.918763058790e-02       1.357952826647e+03 
       4.959081063548e-02       1.348964369451e+03 
       5.001017836152e-02       1.339847714202e+03 
       5.044728308568e-02       1.330589669517e+03 
       5.090388923831e-02       1.321175143867e+03 
       5.138201535686e-02       1.311586754389e+03 
       5.188398165188e-02       1.301804330805e+03 
       5.241246827920e-02       1.291804279676e+03 
       5.297058700660e-02       1.281558763094e+03 
       5.356196962975e-02       1.271034624903e+03 
       5.419087726124e-02       1.260191973920e+03 
       5.486233542372e-02       1.248982294977e+03 
       5.558230055195e-02       1.237345906974e+03 
       5.635786365311e-02       1.225208515675e+03 
       5.719749565373e-02       1.212476514129e+03 
       5.811133470958e-02       1.199030555078e+03 
       5.911150531561e-02       1.184716823895e+03 
