# Matter power spectrum P(k) at redshift z=0
# for k=1.0432e-05 to 1.4771 h/Mpc,
# number of wavenumbers equal to 615
#    1:k (h/Mpc)              2:P (Mpc/h)^3        
       1.043203858107e-05       5.025462073136e+01 
       2.328215892107e-05       1.092507363133e+02 
       3.617727250314e-05       1.673283124968e+02 
       4.915190851293e-05       2.250657791969e+02 
       6.224116470915e-05       2.827990954911e+02 
       7.548101888987e-05       3.407841277719e+02 
       8.890865027471e-05       3.992423206545e+02 
       1.025627750586e-04       4.583794956465e+02 
       1.164840004253e-04       5.183955576173e+02 
       1.307152013420e-04       5.794904331922e+02 
       1.453019244647e-04       6.418682465582e+02 
       1.602928234239e-04       7.057406133396e+02 
       1.757401295933e-04       7.713294850561e+02 
       1.917001620807e-04       8.388697749361e+02 
       2.082338800454e-04       9.086118948828e+02 
       2.254074794006e-04       9.808242768647e+02 
       2.432930343420e-04       1.055795915593e+03 
       2.619691817429e-04       1.133838941326e+03 
       2.815218430063e-04       1.215291205644e+03 
       3.020449731449e-04       1.300518835139e+03 
       3.236413203029e-04       1.389918675283e+03 
       3.464231702390e-04       1.483920507208e+03 
       3.705130390972e-04       1.582988872165e+03 
       3.960442638304e-04       1.687624281381e+03 
       4.231614229296e-04       1.798363523723e+03 
       4.520205011298e-04       1.915778712982e+03 
       4.827886917977e-04       2.040474647373e+03 
       5.156437121743e-04       2.173083997109e+03 
       5.507724934916e-04       2.314259808718e+03 
       5.883691058343e-04       2.464664840259e+03 
       6.286317936486e-04       2.624957347066e+03 
       6.717590397827e-04       2.795773150792e+03 
       7.179446503401e-04       2.977704164362e+03 
       7.673719615817e-04       3.171274011028e+03 
       8.202074077303e-04       3.376911933084e+03 
       8.765938378624e-04       3.594926758475e+03 
       9.366441026307e-04       3.825483165055e+03 
       1.000435511551e-03       4.068582714152e+03 
       1.068005755471e-03       4.324051993729e+03 
       1.139350778129e-03       4.591539653225e+03 
       1.214424872882e-03       4.870523162666e+03 
       1.293143011868e-03       5.160324937037e+03 
       1.375385141413e-03       5.460136273098e+03 
       1.461001957957e-03       5.769046619941e+03 
       1.477104874446e-03       5.826782968611e+03 
       1.549821555084e-03       6.086075260741e+03 
       1.641656317717e-03       6.410202597931e+03 
       1.736309518722e-03       6.740398808279e+03 
       1.833581212203e-03       7.075648433407e+03 
       1.933273177565e-03       7.414970234338e+03 
       2.035192816839e-03       7.757421062914e+03 
       2.139156025022e-03       8.102130120956e+03 
       2.244989132033e-03       8.448299469831e+03 
       2.352530057756e-03       8.795191178706e+03 
       2.461628835834e-03       9.142136016566e+03 
       2.572147656491e-03       9.488531519486e+03 
       2.683960561773e-03       9.833838779043e+03 
       2.796952904641e-03       1.017757844059e+04 
       2.911020660592e-03       1.051932623258e+04 
       3.026069659445e-03       1.085870826416e+04 
       3.142014786849e-03       1.119539630825e+04 
       3.258779190409e-03       1.152910328010e+04 
       3.376293513728e-03       1.185957901389e+04 
       3.494495173015e-03       1.218660643159e+04 
       3.613327684467e-03       1.250999801244e+04 
       3.732740046137e-03       1.282959259321e+04 
       3.852686174839e-03       1.314525249465e+04 
       3.973124396599e-03       1.345686097108e+04 
       4.094016987895e-03       1.376431994635e+04 
       4.215329764158e-03       1.406754799037e+04 
       4.337031711716e-03       1.436647848407e+04 
       4.459094659229e-03       1.466105795317e+04 
       4.581492984793e-03       1.495124456145e+04 
       4.704203355054e-03       1.523700677936e+04 
       4.827204492933e-03       1.551832248990e+04 
       4.950476970853e-03       1.579517720015e+04 
       5.074003026623e-03       1.606756345111e+04 
       5.197766399443e-03       1.633547996795e+04 
       5.321752183733e-03       1.659892937069e+04 
       5.445946698764e-03       1.685792124248e+04 
       5.570337372277e-03       1.711246975513e+04 
       5.694912636495e-03       1.736259189285e+04 
       5.819661835104e-03       1.760830799640e+04 
       5.944575139968e-03       1.784964138506e+04 
       6.069643476465e-03       1.808661803107e+04 
       6.194858456478e-03       1.831926625723e+04 
       6.320212318183e-03       1.854761646177e+04 
       6.445697871876e-03       1.877170089888e+04 
       6.571308451185e-03       1.899155334021e+04 
       6.697037869055e-03       1.920720891157e+04 
       6.822880378022e-03       1.941870387625e+04 
       6.948830634281e-03       1.962607543245e+04 
       7.074883665172e-03       1.982936154881e+04 
       7.201034839711e-03       2.002860081342e+04 
       7.327279841848e-03       2.022383230776e+04 
       7.453614646180e-03       2.041509550974e+04 
       7.580035495857e-03       2.060243020346e+04 
       7.706538882469e-03       2.078587642041e+04 
       7.833121527711e-03       2.096547438340e+04 
       7.959780366653e-03       2.114126445962e+04 
       8.086512532455e-03       2.131328712664e+04 
       8.213315342391e-03       2.148158292445e+04 
       8.340186285054e-03       2.164619242216e+04 
       8.467123008630e-03       2.180715616903e+04 
       8.594123310147e-03       2.196451464957e+04 
       8.721185125602e-03       2.211830823655e+04 
       8.848306520882e-03       2.226857713647e+04 
       8.975485683423e-03       2.241536135026e+04 
       9.102720914528e-03       2.255870062220e+04 
       9.230010622280e-03       2.269863441275e+04 
       9.357353315024e-03       2.283520186635e+04 
       9.484747595335e-03       2.296844180295e+04 
       9.612192154454e-03       2.309839271350e+04 
       9.739685767148e-03       2.322509276443e+04 
       9.867227286955e-03       2.334857981034e+04 
       9.994815641774e-03       2.346889140159e+04 
       1.012244982979e-02       2.358606480166e+04 
       1.025012891572e-02       2.370013699180e+04 
       1.037785202725e-02       2.381114467844e+04 
       1.050561835185e-02       2.391912428840e+04 
       1.063342713373e-02       2.402411196196e+04 
       1.076127767104e-02       2.412614353307e+04 
       1.088916931325e-02       2.422525450780e+04 
       1.101710145878e-02       2.432148004089e+04 
       1.114507355270e-02       2.441485490940e+04 
       1.127308508468e-02       2.450541349553e+04 
       1.140113558702e-02       2.459318977356e+04 
       1.152922463286e-02       2.467821730978e+04 
       1.165735183450e-02       2.476052927205e+04 
       1.178551684181e-02       2.484015845310e+04 
       1.191371934080e-02       2.491713729995e+04 
       1.204195905227e-02       2.499149795766e+04 
       1.217023573052e-02       2.506327230033e+04 
       1.229854916221e-02       2.513249197168e+04 
       1.242689916529e-02       2.519918841609e+04 
       1.255528558792e-02       2.526339289797e+04 
       1.268370830760e-02       2.532513652202e+04 
       1.281216723028e-02       2.538445023797e+04 
       1.294066228954e-02       2.544136483705e+04 
       1.306919344586e-02       2.549591093554e+04 
       1.319776068593e-02       2.554811883897e+04 
       1.332636402201e-02       2.559801818378e+04 
       1.345500349133e-02       2.564563749538e+04 
       1.358367915556e-02       2.569100430246e+04 
       1.371239110035e-02       2.573414610263e+04 
       1.384113943481e-02       2.577509011699e+04 
       1.396992429115e-02       2.581386538382e+04 
       1.409874582427e-02       2.585049946150e+04 
       1.422760421147e-02       2.588502010462e+04 
       1.435649965207e-02       2.591745469396e+04 
       1.448543236722e-02       2.594783027844e+04 
       1.461440259959e-02       2.597617361163e+04 
       1.474341061320e-02       2.600251117668e+04 
       1.477104874446e-02       2.600789431061e+04 
       1.487245669323e-02       2.602686920246e+04 
       1.500154114585e-02       2.604927367355e+04 
       1.513066429808e-02       2.606975033711e+04 
       1.525982649774e-02       2.608832470883e+04 
       1.538902811331e-02       2.610502207516e+04 
       1.551826953388e-02       2.611986749905e+04 
       1.564755116916e-02       2.613288582182e+04 
       1.577687344941e-02       2.614410166665e+04 
       1.590623682550e-02       2.615353944172e+04 
       1.603564176888e-02       2.616122334237e+04 
       1.616508877169e-02       2.616717735408e+04 
       1.629457834678e-02       2.617142525516e+04 
       1.642411102781e-02       2.617399061961e+04 
       1.655368736938e-02       2.617489681924e+04 
       1.668330794713e-02       2.617416702610e+04 
       1.681297335786e-02       2.617182421468e+04 
       1.694268421976e-02       2.616789116412e+04 
       1.707244117249e-02       2.616239046446e+04 
       1.720224487747e-02       2.615534450372e+04 
       1.733209601802e-02       2.614677549236e+04 
       1.746199529963e-02       2.613670545063e+04 
       1.759194345016e-02       2.612515621402e+04 
       1.772194122017e-02       2.611214943439e+04 
       1.785198938313e-02       2.609770658308e+04 
       1.798208873575e-02       2.608184895199e+04 
       1.811224009828e-02       2.606459765478e+04 
       1.824244431483e-02       2.604597362908e+04 
       1.837270225376e-02       2.602599763731e+04 
       1.850301480796e-02       2.600469026887e+04 
       1.863338289531e-02       2.598207194082e+04 
       1.876380745902e-02       2.595816289976e+04 
       1.889428946806e-02       2.593298322302e+04 
       1.902482991760e-02       2.590655281930e+04 
       1.915542982944e-02       2.587889143080e+04 
       1.928609025248e-02       2.585001863794e+04 
       1.941681226320e-02       2.581995384141e+04 
       1.954759696618e-02       2.578871629333e+04 
       1.967844549458e-02       2.575632507734e+04 
       1.980935901073e-02       2.572279911537e+04 
       1.994033870663e-02       2.568815716738e+04 
       2.007138580458e-02       2.565241783392e+04 
       2.020250155775e-02       2.561559955516e+04 
       2.033368725078e-02       2.557772061224e+04 
       2.046494420046e-02       2.553879914079e+04 
       2.059627375636e-02       2.549885308835e+04 
       2.072767730152e-02       2.545790026394e+04 
       2.085915625316e-02       2.541595832971e+04 
       2.099071206338e-02       2.537304477440e+04 
       2.112234621995e-02       2.532917694087e+04 
       2.125406024706e-02       2.528437201495e+04 
       2.138585570610e-02       2.523864701881e+04 
       2.151773419652e-02       2.519201885251e+04 
       2.164969735668e-02       2.514450422258e+04 
       2.178174686469e-02       2.509611971101e+04 
       2.191388443934e-02       2.504688172317e+04 
       2.204611184104e-02       2.499680654199e+04 
       2.217843087276e-02       2.494591027222e+04 
       2.231084338103e-02       2.489420887083e+04 
       2.244335125698e-02       2.484171815084e+04 
       2.257595643737e-02       2.478845377529e+04 
       2.270866090569e-02       2.473443124806e+04 
       2.284146669328e-02       2.467966592132e+04 
       2.297437588049e-02       2.462417300500e+04 
       2.310739059787e-02       2.456796754679e+04 
       2.324051302741e-02       2.451106446009e+04 
       2.337374540380e-02       2.445347849123e+04 
       2.350709001573e-02       2.439522424455e+04 
       2.364054920726e-02       2.433631616694e+04 
       2.377412537922e-02       2.427676857163e+04 
       2.390782099062e-02       2.421659560548e+04 
       2.404163856018e-02       2.415581127058e+04 
       2.417558066779e-02       2.409442941836e+04 
       2.430964995617e-02       2.403246375293e+04 
       2.444384913245e-02       2.396992782207e+04 
       2.457818096990e-02       2.390683503738e+04 
       2.471264830961e-02       2.384319864592e+04 
       2.484725406235e-02       2.377903175207e+04 
       2.498200121038e-02       2.371434731025e+04 
       2.511689280941e-02       2.364915812308e+04 
       2.525193199054e-02       2.358347684247e+04 
       2.538712196234e-02       2.351731597464e+04 
       2.552246601294e-02       2.345068786914e+04 
       2.565796751226e-02       2.338360473991e+04 
       2.579362991423e-02       2.331607863640e+04 
       2.592945675914e-02       2.324812146491e+04 
       2.606545167609e-02       2.317974497798e+04 
       2.620161838545e-02       2.311096077791e+04 
       2.633796070149e-02       2.304178032482e+04 
       2.647448253504e-02       2.297221492188e+04 
       2.661118789627e-02       2.290227572620e+04 
       2.674808089757e-02       2.283197373877e+04 
       2.688516575652e-02       2.276131981480e+04 
       2.702244679899e-02       2.269032466001e+04 
       2.715992846232e-02       2.261899882531e+04 
       2.729761529863e-02       2.254735272258e+04 
       2.743551197826e-02       2.247539660180e+04 
       2.757362329336e-02       2.240314055625e+04 
       2.771195416152e-02       2.233059455126e+04 
       2.785050962965e-02       2.225776838541e+04 
       2.798929487793e-02       2.218467171541e+04 
       2.812831522398e-02       2.211131402648e+04 
       2.826757612707e-02       2.203770467816e+04 
       2.840708319263e-02       2.196385287672e+04 
       2.854684217686e-02       2.188976765320e+04 
       2.868685899152e-02       2.181545791078e+04 
       2.882713970892e-02       2.174093239366e+04 
       2.896769056713e-02       2.166619970931e+04 
       2.910851797538e-02       2.159126828148e+04 
       2.924962851966e-02       2.151614640119e+04 
       2.939102896856e-02       2.144084222292e+04 
       2.953272627939e-02       2.136536371932e+04 
       2.967472760449e-02       2.128971872921e+04 
       2.981704029784e-02       2.121391492910e+04 
       2.995967192195e-02       2.113795986677e+04 
       3.010263025502e-02       2.106186089229e+04 
       3.024592329842e-02       2.098562524241e+04 
       3.038955928450e-02       2.090925998519e+04 
       3.053354668474e-02       2.083277202327e+04 
       3.067789421822e-02       2.075616814325e+04 
       3.082261086053e-02       2.067945494685e+04 
       3.096770585302e-02       2.060263889323e+04 
       3.111318871252e-02       2.052572625985e+04 
       3.125906924144e-02       2.044872319959e+04 
       3.140535753837e-02       2.037163569701e+04 
       3.155206400923e-02       2.029446957760e+04 
       3.169919937879e-02       2.021723052517e+04 
       3.184677470290e-02       2.013992405150e+04 
       3.199480138119e-02       2.006255552845e+04 
       3.214329117042e-02       1.998513011714e+04 
       3.229225619853e-02       1.990765289018e+04 
       3.244170897924e-02       1.983012871898e+04 
       3.259166242756e-02       1.975256231010e+04 
       3.274212987590e-02       1.967495823049e+04 
       3.289312509114e-02       1.959732087358e+04 
       3.304466229246e-02       1.951965447235e+04 
       3.319675617014e-02       1.944196308411e+04 
       3.334942190539e-02       1.936425061253e+04 
       3.350267519108e-02       1.928652078932e+04 
       3.365653225376e-02       1.920877717218e+04 
       3.381100987670e-02       1.913102315351e+04 
       3.396612542430e-02       1.905326197665e+04 
       3.412189686777e-02       1.897549668050e+04 
       3.427834281224e-02       1.889773013347e+04 
       3.443548252548e-02       1.881996503827e+04 
       3.459333596813e-02       1.874220391647e+04 
       3.475192382573e-02       1.866444910818e+04 
       3.491126754264e-02       1.858670276473e+04 
       3.507138935786e-02       1.850896687202e+04 
       3.523231234310e-02       1.843124319692e+04 
       3.539406044302e-02       1.835353336713e+04 
       3.555665851803e-02       1.827583875619e+04 
       3.572013238961e-02       1.819816057489e+04 
       3.588450888858e-02       1.812049983244e+04 
       3.604981590634e-02       1.804285732769e+04 
       3.621608244935e-02       1.796523366300e+04 
       3.638333869724e-02       1.788762920988e+04 
       3.655161606467e-02       1.781004416012e+04 
       3.672094726724e-02       1.773247845377e+04 
       3.689136639196e-02       1.765493182360e+04 
       3.706290897237e-02       1.757740373997e+04 
       3.723561206900e-02       1.749989347875e+04 
       3.740951435530e-02       1.742240004986e+04 
       3.758465620980e-02       1.734492222225e+04 
       3.776107981479e-02       1.726745850454e+04 
       3.793882926228e-02       1.719000714344e+04 
       3.811795066768e-02       1.711256610568e+04 
       3.829849229216e-02       1.703513310108e+04 
       3.848050467416e-02       1.695770553447e+04 
       3.866404077114e-02       1.688028048615e+04 
       3.884915611243e-02       1.680285475578e+04 
       3.903590896420e-02       1.672542481049e+04 
       3.922436050779e-02       1.664798678093e+04 
       3.941457503263e-02       1.657053644332e+04 
       3.960662014526e-02       1.649306921307e+04 
       3.980056699605e-02       1.641558012092e+04 
       3.999649052538e-02       1.633806379492e+04 
       4.019446973136e-02       1.626051444770e+04 
       4.039458796140e-02       1.618292585966e+04 
       4.059693323008e-02       1.610529132285e+04 
       4.080159856630e-02       1.602760366670e+04 
       4.100868239289e-02       1.594985519965e+04 
       4.121828894243e-02       1.587203768522e+04 
       4.143052871336e-02       1.579414230883e+04 
       4.164551897117e-02       1.571615964428e+04 
       4.186338430000e-02       1.563807961726e+04 
       4.208425721088e-02       1.555989145903e+04 
       4.230827881345e-02       1.548158365936e+04 
       4.253559955935e-02       1.540314392491e+04 
       4.276638006645e-02       1.532455909917e+04 
       4.300079203445e-02       1.524581511989e+04 
       4.323901926433e-02       1.516689693487e+04 
       4.348125879550e-02       1.508778845394e+04 
       4.372772217746e-02       1.500847240632e+04 
       4.397863689489e-02       1.492893028349e+04 
       4.423424796870e-02       1.484914222416e+04 
       4.449481975906e-02       1.476908687334e+04 
       4.476063800145e-02       1.468874125990e+04 
       4.503201211169e-02       1.460808062738e+04 
       4.530927780324e-02       1.452707825280e+04 
       4.559280006724e-02       1.444570523892e+04 
       4.588297657637e-02       1.436393027992e+04 
       4.618024158476e-02       1.428171938971e+04 
       4.648507041109e-02       1.419903558421e+04 
       4.679798460969e-02       1.411583850943e+04 
       4.711955795657e-02       1.403208400794e+04 
       4.745042340439e-02       1.394772362299e+04 
       4.779128119444e-02       1.386270399772e+04 
       4.814290835603e-02       1.377696616658e+04 
       4.850616987664e-02       1.369044471345e+04 
       4.888203189337e-02       1.360306673717e+04 
       4.927157734045e-02       1.351475061598e+04 
       4.967602459512e-02       1.342540449607e+04 
       5.009674980006e-02       1.333492441912e+04 
       5.053531371481e-02       1.324319201692e+04 
       5.099349416942e-02       1.315007157446e+04 
       5.147332547611e-02       1.305540635396e+04 
       5.197714651179e-02       1.295901389177e+04 
       5.250765963464e-02       1.286067989609e+04 
       5.306800315547e-02       1.276015030730e+04 
       5.366184075730e-02       1.265712078066e+04 
       5.429347203047e-02       1.255122271897e+04 
       5.496796909775e-02       1.244200435580e+04 
       5.569134496488e-02       1.232890501147e+04 
       5.647075933553e-02       1.221121973791e+04 
       5.731476631059e-02       1.208805033938e+04 
       5.823360392741e-02       1.195823750188e+04 
       5.923951463544e-02       1.182026701281e+04 
