# Matter power spectrum P(k) at redshift z=3
# for k=1.0432e-05 to 1.4771 h/Mpc,
# number of wavenumbers equal to 615
#    1:k (h/Mpc)              2:P (Mpc/h)^3        
       1.043203858107e-05       5.012919028955e+00 
       2.328528460802e-05       1.089924862828e+01 
       3.618354992626e-05       1.669398654708e+01 
       4.916138898433e-05       2.245489533095e+01 
       6.225392543509e-05       2.821554041901e+01 
       7.549716398287e-05       3.400149740680e+01 
       8.892831216245e-05       3.983491084237e+01 
       1.025861163128e-04       4.573637129736e+01 
       1.165112160410e-04       5.172588521951e+01 
       1.307465215049e-04       5.782346892849e+01 
       1.453376178509e-04       6.404956692641e+01 
       1.603332010848e-04       7.042538244608e+01 
       1.757855494827e-04       7.697316344265e+01 
       1.917510342874e-04       8.371646710519e+01 
       2.082906727978e-04       9.068041589026e+01 
       2.254707259089e-04       9.789195243753e+01 
       2.433633405387e-04       1.053800970878e+02 
       2.620472349699e-04       1.131762089129e+02 
       2.816084216740e-04       1.213142485480e+02 
       3.021409573509e-04       1.298310382831e+02 
       3.237477033402e-04       1.387665115445e+02 
       3.465410708419e-04       1.481639398411e+02 
       3.706437141572e-04       1.580701203106e+02 
       3.961891211598e-04       1.685355011004e+02 
       4.233220334546e-04       1.796142150158e+02 
       4.521986096523e-04       1.913639844951e+02 
       4.829862251858e-04       2.038458536729e+02 
       5.158627835475e-04       2.171236972769e+02 
       5.510154006890e-04       2.312634531558e+02 
       5.886383222620e-04       2.463320278505e+02 
       6.289299495741e-04       2.623958357836e+02 
       6.720888923796e-04       2.795189553728e+02 
       7.183090413959e-04       2.977609218059e+02 
       7.677737628091e-04       3.171742261979e+02 
       8.206494550703e-04       3.378016504821e+02 
       8.770788578795e-04       3.596736278440e+02 
       9.371746358066e-04       3.828058663771e+02 
       1.001013838583e-03       4.071974933042e+02 
       1.068633833187e-03       4.328299554516e+02 
       1.140030191065e-03       4.596668438395e+02 
       1.215156804915e-03       4.876547038973e+02 
       1.293928239842e-03       5.167247681549e+02 
       1.376224049979e-03       5.467954327922e+02 
       1.461894572423e-03       5.777752189250e+02 
       1.477104874446e-03       5.832410988902e+02 
       1.550767587447e-03       6.095659292954e+02 
       1.642655220356e-03       6.420657315943e+02 
       1.737360540534e-03       6.751719581441e+02 
       1.834683452832e-03       7.087834882101e+02 
       1.934425636628e-03       7.428026542153e+02 
       2.036394436335e-03       7.771355339883e+02 
       2.140405724178e-03       8.116954276584e+02 
       2.246285834694e-03       8.464027638800e+02 
       2.353872712933e-03       8.811839327612e+02 
       2.463016432342e-03       9.159721848540e+02 
       2.573579232688e-03       9.507074851711e+02 
       2.685435211401e-03       9.853362164274e+02 
       2.798469779678e-03       1.019810775764e+03 
       2.912578971868e-03       1.054089105677e+03 
       3.027668675666e-03       1.088134195694e+03 
       3.143653832539e-03       1.121913585597e+03 
       3.260457643135e-03       1.155398893385e+03 
       3.378010800922e-03       1.188565382549e+03 
       3.496250768591e-03       1.221391574660e+03 
       3.615121105399e-03       1.253858906251e+03 
       3.734570849092e-03       1.285951424410e+03 
       3.854553952934e-03       1.317655513728e+03 
       3.975028776344e-03       1.348959647900e+03 
       4.095957626315e-03       1.379854161441e+03 
       4.217306346140e-03       1.410331039517e+03 
       4.339043947551e-03       1.440383725897e+03 
       4.461142282363e-03       1.470006949903e+03 
       4.583575749777e-03       1.499196572983e+03 
       4.706321035668e-03       1.527949454474e+03 
       4.829356880490e-03       1.556263334847e+03 
       4.952663872656e-03       1.584136733777e+03 
       5.076224264565e-03       1.611568860160e+03 
       5.200021808741e-03       1.638559531564e+03 
       5.324041611784e-03       1.665108942155e+03 
       5.448270004104e-03       1.691217985896e+03 
       5.572694423643e-03       1.716887989697e+03 
       5.697303311973e-03       1.742120551403e+03 
       5.822086021359e-03       1.766917588228e+03 
       5.947032731542e-03       1.791281300060e+03 
       6.072134375147e-03       1.815214138820e+03 
       6.197382570725e-03       1.838718781375e+03 
       6.322769562599e-03       1.861798105179e+03 
       6.448288166736e-03       1.884455167916e+03 
       6.573931722001e-03       1.906693174436e+03 
       6.699694046184e-03       1.928515459949e+03 
       6.825569396305e-03       1.949925467517e+03 
       6.951552432716e-03       1.970926726854e+03 
       7.077638186616e-03       1.991522838141e+03 
       7.203822030602e-03       2.011717457930e+03 
       7.330099651959e-03       2.031514288479e+03 
       7.456467028387e-03       2.050917070320e+03 
       7.582920405929e-03       2.069929575238e+03 
       7.709456278877e-03       2.088555601565e+03 
       7.836071371447e-03       2.106798968870e+03 
       7.962762621070e-03       2.124663512802e+03 
       8.089527163116e-03       2.142153080546e+03 
       8.216362316932e-03       2.159271525070e+03 
       8.343265573053e-03       2.176022701301e+03 
       8.470234581496e-03       2.192410460570e+03 
       8.597267141007e-03       2.208438637491e+03 
       8.724361189199e-03       2.224111337148e+03 
       8.851514793489e-03       2.239432593345e+03 
       8.978726142752e-03       2.254405665779e+03 
       9.105993539652e-03       2.269034340999e+03 
       9.233315393561e-03       2.283322376505e+03 
       9.360690214043e-03       2.297273500147e+03 
       9.488116604829e-03       2.310891412335e+03 
       9.615593258259e-03       2.324179784838e+03 
       9.743118950145e-03       2.337142261072e+03 
       9.870692535014e-03       2.349782456750e+03 
       9.998312941714e-03       2.362103960156e+03 
       1.012597916934e-02       2.374110333480e+03 
       1.025369028344e-02       2.385805112945e+03 
       1.038144541256e-02       2.397191809355e+03 
       1.050924374495e-02       2.408273908018e+03 
       1.063708452557e-02       2.419054868147e+03 
       1.076496705328e-02       2.429538121718e+03 
       1.089289067827e-02       2.439727071808e+03 
       1.102085479962e-02       2.449625090996e+03 
       1.114885886306e-02       2.459235519309e+03 
       1.127690235886e-02       2.468561662823e+03 
       1.140498481994e-02       2.477606792512e+03 
       1.153310582001e-02       2.486374144082e+03 
       1.166126497193e-02       2.494866918560e+03 
       1.178946192612e-02       2.503088284035e+03 
       1.191769636913e-02       2.511041377972e+03 
       1.204596802226e-02       2.518729310922e+03 
       1.217427664032e-02       2.526155169019e+03 
       1.230262201046e-02       2.533322017739e+03 
       1.243100395109e-02       2.540232904655e+03 
       1.255942231086e-02       2.546890861613e+03 
       1.268787696771e-02       2.553298906690e+03 
       1.281636782804e-02       2.559460045017e+03 
       1.294489482586e-02       2.565377268874e+03 
       1.307345792210e-02       2.571053556319e+03 
       1.320205710386e-02       2.576491858962e+03 
       1.333069238380e-02       2.581695069270e+03 
       1.345936379958e-02       2.586665980704e+03 
       1.358807141329e-02       2.591407298984e+03 
       1.371681531094e-02       2.595921732245e+03 
       1.384559560207e-02       2.600211947247e+03 
       1.397441241926e-02       2.604280802934e+03 
       1.410326591782e-02       2.608131003463e+03 
       1.423215627542e-02       2.611765277779e+03 
       1.436108369177e-02       2.615186322057e+03 
       1.449004838840e-02       2.618396803398e+03 
       1.461905060836e-02       2.621399363077e+03 
       1.474809061606e-02       2.624196618774e+03 
       1.477104874446e-02       2.624672895115e+03 
       1.487716869704e-02       2.626791165995e+03 
       1.500628515786e-02       2.629185578938e+03 
       1.513544032592e-02       2.631382411101e+03 
       1.526463454942e-02       2.633384195776e+03 
       1.539386819720e-02       2.635193446254e+03 
       1.552314165876e-02       2.636812656251e+03 
       1.565245534417e-02       2.638244300117e+03 
       1.578180968409e-02       2.639490833084e+03 
       1.591120512975e-02       2.640554691513e+03 
       1.604064215302e-02       2.641438293072e+03 
       1.617012124641e-02       2.642144036976e+03 
       1.629964292316e-02       2.642674304169e+03 
       1.642920771735e-02       2.643031457533e+03 
       1.655881618396e-02       2.643217842047e+03 
       1.668846889903e-02       2.643235784992e+03 
       1.681816645979e-02       2.643087596100e+03 
       1.694790948481e-02       2.642775567738e+03 
       1.707769861420e-02       2.642301975096e+03 
       1.720753450978e-02       2.641669076290e+03 
       1.733741785531e-02       2.640879112586e+03 
       1.746734935669e-02       2.639934308470e+03 
       1.759732974226e-02       2.638836871830e+03 
       1.772735976297e-02       2.637588994016e+03 
       1.785744019278e-02       2.636192850055e+03 
       1.798757182884e-02       2.634650598712e+03 
       1.811775549186e-02       2.632964382609e+03 
       1.824799202644e-02       2.631136328309e+03 
       1.837828230139e-02       2.629168546418e+03 
       1.850862721011e-02       2.627063131670e+03 
       1.863902767096e-02       2.624822163043e+03 
       1.876948462765e-02       2.622447703809e+03 
       1.889999904967e-02       2.619941801587e+03 
       1.903057193270e-02       2.617306488501e+03 
       1.916120429907e-02       2.614543781086e+03 
       1.929189719822e-02       2.611655680521e+03 
       1.942265170718e-02       2.608644172609e+03 
       1.955346893108e-02       2.605511227761e+03 
       1.968435000365e-02       2.602258801215e+03 
       1.981529608780e-02       2.598888832881e+03 
       1.994630837612e-02       2.595403247479e+03 
       2.007738809151e-02       2.591803954644e+03 
       2.020853648775e-02       2.588092848831e+03 
       2.033975485011e-02       2.584271809403e+03 
       2.047104449601e-02       2.580342700711e+03 
       2.060240677568e-02       2.576307372010e+03 
       2.073384307281e-02       2.572167657499e+03 
       2.086535480531e-02       2.567925376418e+03 
       2.099694342597e-02       2.563582333070e+03 
       2.112861042325e-02       2.559140316662e+03 
       2.126035732207e-02       2.554601101526e+03 
       2.139218568457e-02       2.549966447026e+03 
       2.152409711093e-02       2.545238097472e+03 
       2.165609324029e-02       2.540417782348e+03 
       2.178817575154e-02       2.535507216164e+03 
       2.192034636428e-02       2.530508098436e+03 
       2.205260683972e-02       2.525422113738e+03 
       2.218495898168e-02       2.520250931740e+03 
       2.231740463755e-02       2.514996207120e+03 
       2.244994569933e-02       2.509659579592e+03 
       2.258258410467e-02       2.504242673887e+03 
       2.271532183798e-02       2.498747099792e+03 
       2.284816093153e-02       2.493174452119e+03 
       2.298110346665e-02       2.487526310635e+03 
       2.311415157485e-02       2.481804240055e+03 
       2.324730743913e-02       2.476009790172e+03 
       2.338057329519e-02       2.470144495763e+03 
       2.351395143279e-02       2.464209876420e+03 
       2.364744419706e-02       2.458207436733e+03 
       2.378105398994e-02       2.452138666267e+03 
       2.391478327156e-02       2.446005039504e+03 
       2.404863456177e-02       2.439808015633e+03 
       2.418261044168e-02       2.433549038922e+03 
       2.431671355520e-02       2.427229538459e+03 
       2.445094661072e-02       2.420850928107e+03 
       2.458531238276e-02       2.414414606566e+03 
       2.471981371372e-02       2.407921957364e+03 
       2.485445351570e-02       2.401374348852e+03 
       2.498923477234e-02       2.394773134143e+03 
       2.512416054075e-02       2.388119651098e+03 
       2.525923395346e-02       2.381415222189e+03 
       2.539445822052e-02       2.374661154850e+03 
       2.552983663158e-02       2.367858741120e+03 
       2.566537255809e-02       2.361009257666e+03 
       2.580106945559e-02       2.354113965847e+03 
       2.593693086600e-02       2.347174111783e+03 
       2.607296042009e-02       2.340190926135e+03 
       2.620916183995e-02       2.333165624271e+03 
       2.634553894162e-02       2.326099406004e+03 
       2.648209563773e-02       2.318993455888e+03 
       2.661883594031e-02       2.311848943066e+03 
       2.675576396368e-02       2.304667021149e+03 
       2.689288392736e-02       2.297448828403e+03 
       2.703020015924e-02       2.290195487570e+03 
       2.716771709872e-02       2.282908105888e+03 
       2.730543930006e-02       2.275587775113e+03 
       2.744337143580e-02       2.268235571561e+03 
       2.758151830029e-02       2.260852555970e+03 
       2.771988481346e-02       2.253439773476e+03 
       2.785847602459e-02       2.245998253805e+03 
       2.799729711631e-02       2.238529011042e+03 
       2.813635340873e-02       2.231033043665e+03 
       2.827565036370e-02       2.223511334614e+03 
       2.841519358933e-02       2.215964851182e+03 
       2.855498884454e-02       2.208394545130e+03 
       2.869504204389e-02       2.200801352420e+03 
       2.883535926261e-02       2.193186193463e+03 
       2.897594674175e-02       2.185549973099e+03 
       2.911681089360e-02       2.177893580275e+03 
       2.925795830731e-02       2.170217888347e+03 
       2.939939575475e-02       2.162523755032e+03 
       2.954113019657e-02       2.154812022226e+03 
       2.968316878858e-02       2.147083516034e+03 
       2.982551888834e-02       2.139339046859e+03 
       2.996818806203e-02       2.131579409347e+03 
       3.011118409164e-02       2.123805382257e+03 
       3.025451498247e-02       2.116017728480e+03 
       3.039818897091e-02       2.108217195178e+03 
       3.054221453260e-02       2.100404513548e+03 
       3.068660039094e-02       2.092580398814e+03 
       3.083135552596e-02       2.084745550376e+03 
       3.097648918361e-02       2.076900651572e+03 
       3.112201088545e-02       2.069046369814e+03 
       3.126793043881e-02       2.061183356345e+03 
       3.141425794736e-02       2.053312246411e+03 
       3.156100382225e-02       2.045433659188e+03 
       3.170817879367e-02       2.037548197517e+03 
       3.185579392309e-02       2.029656448155e+03 
       3.200386061594e-02       2.021758981507e+03 
       3.215239063501e-02       2.013856351756e+03 
       3.230139611444e-02       2.005949096564e+03 
       3.245088957443e-02       1.998037737200e+03 
       3.260088393666e-02       1.990122778452e+03 
       3.275139254048e-02       1.982204708454e+03 
       3.290242915994e-02       1.974283998713e+03 
       3.305400802167e-02       1.966361103845e+03 
       3.320614382372e-02       1.958436461775e+03 
       3.335885175529e-02       1.950510493475e+03 
       3.351214751761e-02       1.942583602671e+03 
       3.366604734590e-02       1.934656176025e+03 
       3.382056803242e-02       1.926728582974e+03 
       3.397572695093e-02       1.918801175401e+03 
       3.413154208239e-02       1.910874287636e+03 
       3.428803204206e-02       1.902948236394e+03 
       3.444521610825e-02       1.895023320323e+03 
       3.460311425258e-02       1.887099820146e+03 
       3.476174717206e-02       1.879177998304e+03 
       3.492113632296e-02       1.871258098693e+03 
       3.508130395674e-02       1.863340346733e+03 
       3.524227315809e-02       1.855424948691e+03 
       3.540406788522e-02       1.847512091960e+03 
       3.556671301271e-02       1.839601944286e+03 
       3.573023437683e-02       1.831694653905e+03 
       3.589465882389e-02       1.823790348927e+03 
       3.606001426145e-02       1.815889137231e+03 
       3.622632971293e-02       1.807991105932e+03 
       3.639363537572e-02       1.800096321096e+03 
       3.656196268306e-02       1.792204827348e+03 
       3.673134437007e-02       1.784316647576e+03 
       3.690181454421e-02       1.776431782132e+03 
       3.707340876055e-02       1.768550208515e+03 
       3.724616410216e-02       1.760671880994e+03 
       3.742011926626e-02       1.752796729774e+03 
       3.759531465635e-02       1.744924660594e+03 
       3.777179248103e-02       1.737055553813e+03 
       3.794959686002e-02       1.729189263904e+03 
       3.812877393797e-02       1.721325618748e+03 
       3.830937200689e-02       1.713464418553e+03 
       3.849144163781e-02       1.705605435188e+03 
       3.867503582262e-02       1.697748411092e+03 
       3.886021012710e-02       1.689893058351e+03 
       3.904702285599e-02       1.682039057536e+03 
       3.923553523154e-02       1.674186056541e+03 
       3.942581158657e-02       1.666333668865e+03 
       3.961791957371e-02       1.658481473118e+03 
       3.981193039230e-02       1.650629010670e+03 
       4.000791903483e-02       1.642775784209e+03 
       4.020596455496e-02       1.634921256174e+03 
       4.040615035929e-02       1.627064846644e+03 
       4.060856452563e-02       1.619205931115e+03 
       4.081330015044e-02       1.611343838250e+03 
       4.102045572889e-02       1.603477847578e+03 
       4.123013557103e-02       1.595607186438e+03 
       4.144245025847e-02       1.587731026971e+03 
       4.165751714603e-02       1.579848483031e+03 
       4.187546091399e-02       1.571958606384e+03 
       4.209641417693e-02       1.564060382867e+03 
       4.232051815628e-02       1.556152727668e+03 
       4.254792342448e-02       1.548234480727e+03 
       4.277879073019e-02       1.540304401400e+03 
       4.301329191494e-02       1.532361162334e+03 
       4.325161093378e-02       1.524403342764e+03 
       4.349394499380e-02       1.516429421291e+03 
       4.374050582734e-02       1.508437767652e+03 
       4.399152111886e-02       1.500426633088e+03 
       4.424723610796e-02       1.492394140451e+03 
       4.450791539478e-02       1.484338272181e+03 
       4.477384497868e-02       1.476256856859e+03 
       4.504533456633e-02       1.468147554460e+03 
       4.532272019255e-02       1.460007839102e+03 
       4.560636720449e-02       1.451834979227e+03 
       4.589667367024e-02       1.443626015241e+03 
       4.619407428435e-02       1.435377733315e+03 
       4.649904485750e-02       1.427086635457e+03 
       4.681210749529e-02       1.418748904150e+03 
       4.713383659343e-02       1.410360361236e+03 
       4.746486580352e-02       1.401916419655e+03 
       4.780589615798e-02       1.393412025857e+03 
       4.815770558481e-02       1.384841591530e+03 
       4.852116009640e-02       1.376198911570e+03 
       4.889722700336e-02       1.367477064963e+03 
       4.928699058931e-02       1.358668294009e+03 
       4.969167078987e-02       1.349763856578e+03 
       5.011264555581e-02       1.340753842622e+03 
       5.055147775440e-02       1.331626946064e+03 
       5.100994768489e-02       1.322370176454e+03 
       5.149009256669e-02       1.312968493570e+03 
       5.199425471734e-02       1.303404336799e+03 
       5.252514058797e-02       1.293657014681e+03 
       5.308589338320e-02       1.283701904407e+03 
       5.368018266594e-02       1.273509388637e+03 
       5.431231512246e-02       1.263043430747e+03 
       5.498737147010e-02       1.252259641441e+03 
       5.571137514847e-02       1.241102631963e+03 
       5.649149853114e-02       1.229502356407e+03 
       5.733631105685e-02       1.217369022954e+03 
       5.825606917561e-02       1.204585999988e+03 
       5.926303706742e-02       1.190999957985e+03 
