# dimensionless total [l(l+1)/2pi] C_l's
# for l=2 to 3100, i.e. number of multipoles equal to 3099
#
# -> if you prefer output in CAMB/HealPix/LensPix units/order, set 'format' to 'camb' in input file
# -> if you don't want to see such a header, set 'headers' to 'no' in input file
# -> for CMB lensing (phi), these are C_l^phi-phi for the lensing potential.
#    Remember the conversion factors:
#    C_l^dd (deflection) = l(l+1) C_l^phi-phi
#    C_l^gg (shear/convergence) = 1/4 (l(l+1))^2 C_l^phi-phi
#
# 1:l     2:TT                     3:EE                     4:TE                     5:BB                     6:phiphi                 7:TPhi                   8:Ephi               
    2       1.451251827711e-10       5.280525669359e-15       4.114352582923e-13       0.000000000000e+00       8.543447876244e-09       4.762185099486e-10      -2.097356201263e-12 
    3       1.371407066191e-10       7.811965387164e-15       5.000101890113e-13       0.000000000000e+00       5.305375393996e-09       3.392317485623e-10      -1.698570219446e-12 
    4       1.294048207374e-10       8.145761235142e-15       5.121238460004e-13       0.000000000000e+00       3.701255783253e-09       2.574072441374e-10      -1.225965785881e-12 
    5       1.233893566995e-10       7.022905086025e-15       4.865569788752e-13       0.000000000000e+00       2.766109502026e-09       2.036567756829e-10      -8.044959080419e-13 
    6       1.190205001844e-10       5.515425955438e-15       4.468288784077e-13       0.000000000000e+00       2.162350084062e-09       1.659467576378e-10      -4.715353887426e-13 
    7       1.159367292757e-10       4.310943615779e-15       4.072374378203e-13       0.000000000000e+00       1.744813505868e-09       1.382329730821e-10      -2.365918642499e-13 
    8       1.138437665979e-10       3.580329871674e-15       3.747195754287e-13       0.000000000000e+00       1.441545719440e-09       1.171798727365e-10      -9.282697527285e-14 
    9       1.124916024759e-10       3.209868228489e-15       3.517989931866e-13       0.000000000000e+00       1.213697022574e-09       1.007977996622e-10      -2.392257162366e-14 
   10       1.116750276803e-10       3.052904945579e-15       3.384293115314e-13       0.000000000000e+00       1.037832710731e-09       8.779279934967e-11      -8.863844430230e-15 
   11       1.112987015534e-10       3.043604697505e-15       3.329731019259e-13       0.000000000000e+00       8.749806230716e-10       7.750602785943e-11      -2.694712972753e-14 
   12       1.112439864615e-10       3.182063674978e-15       3.330441353450e-13       0.000000000000e+00       7.646837831527e-10       6.863247105300e-11      -5.813230195872e-14 
   13       1.114385394426e-10       3.476204265927e-15       3.363157132935e-13       0.000000000000e+00       6.741226420326e-10       6.139557823660e-11      -8.765346576760e-14 
   14       1.118144424353e-10       3.908741864939e-15       3.409246965052e-13       0.000000000000e+00       5.987604688080e-10       5.507564426588e-11      -1.091256742550e-13 
   15       1.123723711978e-10       4.442798716160e-15       3.454818312834e-13       0.000000000000e+00       5.353140971474e-10       4.976359767642e-11      -1.176258987754e-13 
   16       1.130656586169e-10       5.043123349734e-15       3.490620418710e-13       0.000000000000e+00       4.813611955209e-10       4.520827675076e-11      -1.143306712567e-13 
   17       1.138694420556e-10       5.688705136740e-15       3.513462690482e-13       0.000000000000e+00       4.350715170035e-10       4.124385911811e-11      -1.028173219296e-13 
   18       1.147539547090e-10       6.371012283878e-15       3.524534643842e-13       0.000000000000e+00       3.948884938995e-10       3.774433725198e-11      -8.783613338751e-14 
   19       1.157314488371e-10       7.085094716823e-15       3.526494959849e-13       0.000000000000e+00       3.601767636169e-10       3.467711263252e-11      -7.293974963948e-14 
   20       1.167723961214e-10       7.825454100834e-15       3.521404527278e-13       0.000000000000e+00       3.296002481788e-10       3.196558879620e-11      -6.139590127284e-14 
   21       1.178860583114e-10       8.586497386472e-15       3.511610265265e-13       0.000000000000e+00       3.026799870158e-10       2.956653628218e-11      -5.423657152067e-14 
   22       1.190606946368e-10       9.362985941598e-15       3.498415201934e-13       0.000000000000e+00       2.787732023108e-10       2.740915283409e-11      -5.137247060998e-14 
   23       1.202934921044e-10       1.015374178012e-14       3.480679417322e-13       0.000000000000e+00       2.575521560202e-10       2.546891654548e-11      -5.176359273355e-14 
   24       1.215647163287e-10       1.095932317947e-14       3.455520049462e-13       0.000000000000e+00       2.385272279064e-10       2.371482806102e-11      -5.372044501064e-14 
   25       1.228872852120e-10       1.177948877126e-14       3.420714915259e-13       0.000000000000e+00       2.214752911614e-10       2.214139097252e-11      -5.571676700933e-14 
   26       1.242654497544e-10       1.261418102497e-14       3.373726770997e-13       0.000000000000e+00       2.060883232852e-10       2.073252708036e-11      -5.625063036703e-14 
   27       1.256863260357e-10       1.346378490185e-14       3.313143508908e-13       0.000000000000e+00       1.921821393566e-10       1.945864104384e-11      -5.489186564096e-14 
   28       1.271236431552e-10       1.432921696120e-14       3.237872659909e-13       0.000000000000e+00       1.795173681782e-10       1.827921069374e-11      -5.167488009793e-14 
   29       1.285875995677e-10       1.521161964044e-14       3.148516516393e-13       0.000000000000e+00       1.680296053887e-10       1.719230872060e-11      -4.718392899765e-14 
   30       1.300890562759e-10       1.611267292839e-14       3.046167069683e-13       0.000000000000e+00       1.575957812157e-10       1.619975556528e-11      -4.235220329851e-14 
   31       1.316278859222e-10       1.703422214205e-14       2.931898697395e-13       0.000000000000e+00       1.480034034499e-10       1.529444947138e-11      -3.817365501050e-14 
   32       1.332065827991e-10       1.797645457557e-14       2.806773702648e-13       0.000000000000e+00       1.392031131355e-10       1.446818343275e-11      -3.495899496976e-14 
   33       1.348189450184e-10       1.893904747908e-14       2.671795266555e-13       0.000000000000e+00       1.311328284300e-10       1.370490277596e-11      -3.280406454895e-14 
   34       1.364519938471e-10       1.992170125873e-14       2.527694856121e-13       0.000000000000e+00       1.236797906319e-10       1.298477862149e-11      -3.170768867460e-14 
   35       1.381102779772e-10       2.092438376677e-14       2.374288871793e-13       0.000000000000e+00       1.168059724661e-10       1.230897620960e-11      -3.132539274602e-14 
   36       1.397983411310e-10       2.194716667998e-14       2.210830790654e-13       0.000000000000e+00       1.104563485495e-10       1.168270929091e-11      -3.111502480752e-14 
   37       1.415158029505e-10       2.299011419275e-14       2.036391990864e-13       0.000000000000e+00       1.045484186170e-10       1.110807700248e-11      -3.052976847986e-14 
   38       1.432653224272e-10       2.405312542569e-14       1.850735851360e-13       0.000000000000e+00       9.906699645655e-11       1.058294977300e-11      -2.949315752361e-14 
   39       1.450460652095e-10       2.513603385949e-14       1.653683182566e-13       0.000000000000e+00       9.399475998607e-11       1.010115101115e-11      -2.807665685784e-14 
   40       1.468507556186e-10       2.623864320960e-14       1.444850731937e-13       0.000000000000e+00       8.928341553233e-11       9.652318363098e-12      -2.637443885351e-14 
   41       1.486698537586e-10       2.736075330687e-14       1.223892013795e-13       0.000000000000e+00       8.487053959601e-11       9.225104518200e-12      -2.450232956055e-14 
   42       1.505072551255e-10       2.850225975369e-14       9.913655553314e-14       0.000000000000e+00       8.074319376282e-11       8.818852718961e-12      -2.259054398817e-14 
   43       1.523686284781e-10       2.966307839009e-14       7.481132578360e-14       0.000000000000e+00       7.689047043853e-11       8.435147936924e-12      -2.079117012011e-14 
   44       1.542567411144e-10       3.084311449831e-14       4.950192318694e-14       0.000000000000e+00       7.328440247419e-11       8.074507227797e-12      -1.928188652496e-14 
   45       1.561722513276e-10       3.204226235348e-14       2.328560397457e-14       0.000000000000e+00       6.988996403894e-11       7.736557651511e-12      -1.821631694059e-14 
   46       1.581170920963e-10       3.326041039071e-14      -3.822331143297e-15       0.000000000000e+00       6.670183959287e-11       7.420863331354e-12      -1.755423027190e-14 
   47       1.600915765072e-10       3.449743276404e-14      -3.183350701438e-14       0.000000000000e+00       6.371633676176e-11       7.126179722064e-12      -1.718286164838e-14 
   48       1.620931484720e-10       3.575318447136e-14      -6.077393703199e-14       0.000000000000e+00       6.092029552802e-11       6.850120046629e-12      -1.696194172610e-14 
   49       1.641161389034e-10       3.702749865893e-14      -9.068523181498e-14       0.000000000000e+00       5.829038405938e-11       6.589073613955e-12      -1.672210324999e-14 
   50       1.661543787683e-10       3.832017376763e-14      -1.216109755456e-13       0.000000000000e+00       5.580013023119e-11       6.339240359958e-12      -1.630967650073e-14 
   51       1.682104400984e-10       3.963093711228e-14      -1.535486912733e-13       0.000000000000e+00       5.344489995806e-11       6.100255026980e-12      -1.573910695327e-14 
   52       1.702884818819e-10       4.095946675687e-14      -1.864869264132e-13       0.000000000000e+00       5.122248174469e-11       5.872405533995e-12      -1.507915531412e-14 
   53       1.723915056310e-10       4.230539771037e-14      -2.204194440876e-13       0.000000000000e+00       4.912561150725e-11       5.655574270492e-12      -1.441070016606e-14 
   54       1.745212459987e-10       4.366831875309e-14      -2.553457338137e-13       0.000000000000e+00       4.714163243478e-11       5.449208942302e-12      -1.382732753681e-14 
   55       1.766785627747e-10       4.504781400467e-14      -2.912683893878e-13       0.000000000000e+00       4.525635931362e-11       5.252577885436e-12      -1.341205554914e-14 
   56       1.788649814940e-10       4.644360699081e-14      -3.281833098047e-13       0.000000000000e+00       4.346757489516e-11       5.065677070237e-12      -1.315938671201e-14 
   57       1.810813439555e-10       4.785544680700e-14      -3.660879585453e-13       0.000000000000e+00       4.177429053593e-11       4.888497350714e-12      -1.303492442103e-14 
   58       1.833272524816e-10       4.928306511326e-14      -4.049846632723e-13       0.000000000000e+00       4.017266299454e-11       4.720742059972e-12      -1.299720850335e-14 
   59       1.856009800693e-10       5.072617470376e-14      -4.448810044605e-13       0.000000000000e+00       3.865581810325e-11       4.561808939207e-12      -1.299737498435e-14 
   60       1.878993805413e-10       5.218446807637e-14      -4.857902040266e-13       0.000000000000e+00       3.721367443951e-11       4.410772066715e-12      -1.297881585432e-14 
   61       1.902192218601e-10       5.365753589378e-14      -5.277216023844e-13       0.000000000000e+00       3.583574425671e-11       4.266641664141e-12      -1.288973162207e-14 
   62       1.925617390560e-10       5.514460421567e-14      -5.706487125920e-13       0.000000000000e+00       3.452066985384e-11       4.129252543078e-12      -1.272485115723e-14 
   63       1.949289484654e-10       5.664473547875e-14      -6.145346526131e-13       0.000000000000e+00       3.326852458999e-11       3.998543920102e-12      -1.249251518177e-14 
   64       1.973222709390e-10       5.815689950706e-14      -6.593414968199e-13       0.000000000000e+00       3.207794426960e-11       3.874290065970e-12      -1.220267730282e-14 
   65       1.997424871489e-10       5.967996953979e-14      -7.050303501372e-13       0.000000000000e+00       3.094604528024e-11       3.756091051456e-12      -1.186697285772e-14 
   66       2.021896928961e-10       6.121271825903e-14      -7.515614221852e-13       0.000000000000e+00       2.986834273036e-11       3.643363493192e-12      -1.149878775903e-14 
   67       2.046632544170e-10       6.275381381757e-14      -7.988941014231e-13       0.000000000000e+00       2.883866858696e-11       3.535331299499e-12      -1.111332733961e-14 
   68       2.071623871332e-10       6.430195247569e-14      -8.469918105957e-13       0.000000000000e+00       2.785081974752e-11       3.431231214420e-12      -1.072463755303e-14 
   69       2.096881279778e-10       6.585629659901e-14      -8.958375498000e-13       0.000000000000e+00       2.690407302352e-11       3.330998498874e-12      -1.033581379187e-14 
   70       2.122416842621e-10       6.741611868243e-14      -9.454216505177e-13       0.000000000000e+00       2.599864571128e-11       3.234704200342e-12      -9.946922678947e-15 
   71       2.148238173610e-10       6.898067212395e-14      -9.957374658781e-13       0.000000000000e+00       2.513402758798e-11       3.142348954579e-12      -9.557865236185e-15 
   72       2.174348139649e-10       7.054919074629e-14      -1.046781567086e-12       0.000000000000e+00       2.430894329324e-11       3.053859225010e-12      -9.168367784768e-15 
   73       2.200744573314e-10       7.212088831850e-14      -1.098553939847e-12       0.000000000000e+00       2.352131471075e-11       2.969083542128e-12      -8.777972845316e-15 
   74       2.227419985371e-10       7.369495807760e-14      -1.151058180799e-12       0.000000000000e+00       2.276822334974e-11       2.887788742887e-12      -8.386030038059e-15 
   75       2.254361277298e-10       7.527057225021e-14      -1.204301693934e-12       0.000000000000e+00       2.204587272666e-11       2.809656210104e-12      -7.991686983006e-15 
   76       2.281555510320e-10       7.684682149242e-14      -1.258286790950e-12       0.000000000000e+00       2.135053117227e-11       2.734365173962e-12      -7.594756012790e-15 
   77       2.309009062549e-10       7.842252151739e-14      -1.312981684479e-12       0.000000000000e+00       2.068164189544e-11       2.661868466614e-12      -7.198516892464e-15 
   78       2.336731459176e-10       7.999637017242e-14      -1.368344537625e-12       0.000000000000e+00       2.003921434433e-11       2.592160454129e-12      -6.807411031149e-15 
   79       2.364729465219e-10       8.156700270971e-14      -1.424332100533e-12       0.000000000000e+00       1.942287686293e-11       2.525192492010e-12      -6.426219726229e-15 
   80       2.393006922234e-10       8.313299007595e-14      -1.480899720300e-12       0.000000000000e+00       1.883185917703e-11       2.460870949868e-12      -6.060073022766e-15 
   81       2.421564585030e-10       8.469283720195e-14      -1.538001350871e-12       0.000000000000e+00       1.826497488022e-11       2.399055236101e-12      -5.714458572925e-15 
   82       2.450399958379e-10       8.624498129219e-14      -1.595589562952e-12       0.000000000000e+00       1.772060391988e-11       2.339555822566e-12      -5.395230495392e-15 
   83       2.479507133731e-10       8.778779011446e-14      -1.653615553909e-12       0.000000000000e+00       1.719667508320e-11       2.282132269256e-12      -5.108618234793e-15 
   84       2.508879854575e-10       8.931965308971e-14      -1.712031816488e-12       0.000000000000e+00       1.669116960790e-11       2.226551711284e-12      -4.859576661454e-15 
   85       2.538521654084e-10       9.083927565854e-14      -1.770800631590e-12       0.000000000000e+00       1.620376630449e-11       2.172779787107e-12      -4.646502697606e-15 
   86       2.568437106514e-10       9.234543080539e-14      -1.829887008121e-12       0.000000000000e+00       1.573443831740e-11       2.120817887667e-12      -4.465654990669e-15 
   87       2.598628640557e-10       9.383687044865e-14      -1.889256203153e-12       0.000000000000e+00       1.528294762218e-11       2.070644563272e-12      -4.312716059381e-15 
   88       2.629096430319e-10       9.531232528993e-14      -1.948873776508e-12       0.000000000000e+00       1.484883626988e-11       2.022214564454e-12      -4.182773274903e-15 
   89       2.659838286295e-10       9.677050466332e-14      -2.008705645355e-12       0.000000000000e+00       1.443141763145e-11       1.975457882810e-12      -4.070299841932e-15 
   90       2.690849546347e-10       9.821009638465e-14      -2.068718138796e-12       0.000000000000e+00       1.402976764212e-11       1.930278791854e-12      -3.969135779799e-15 
   91       2.722122966674e-10       9.962976660079e-14      -2.128878052458e-12       0.000000000000e+00       1.364271604581e-11       1.886554887869e-12      -3.872468903582e-15 
   92       2.753648612792e-10       1.010281596389e-13      -2.189152703086e-12       0.000000000000e+00       1.326883763951e-11       1.844136130749e-12      -3.772815805210e-15 
   93       2.785416923547e-10       1.024039223153e-13      -2.249507783988e-12       0.000000000000e+00       1.290679057040e-11       1.802882794205e-12      -3.663664436387e-15 
   94       2.817428667104e-10       1.037557813723e-13      -2.309900443841e-12       0.000000000000e+00       1.255640844647e-11       1.762787928742e-12      -3.544725762139e-15 
   95       2.849686287731e-10       1.050824774630e-13      -2.370285263031e-12       0.000000000000e+00       1.221775705544e-11       1.723871629451e-12      -3.417440467516e-15 
   96       2.882190801589e-10       1.063827419126e-13      -2.430616384116e-12       0.000000000000e+00       1.189079800918e-11       1.686143348420e-12      -3.283391471734e-15 
   97       2.914941731265e-10       1.076552969030e-13      -2.490847536233e-12       0.000000000000e+00       1.157538475205e-11       1.649601469687e-12      -3.144307717816e-15 
   98       2.947937040300e-10       1.088988556579e-13      -2.550932059502e-12       0.000000000000e+00       1.127125856920e-11       1.614232884189e-12      -3.002067962239e-15 
   99       2.981173067723e-10       1.101121226278e-13      -2.610822929425e-12       0.000000000000e+00       1.097804459492e-11       1.580012564718e-12      -2.858704564570e-15 
  100       3.014644462581e-10       1.112937936752e-13      -2.670472781296e-12       0.000000000000e+00       1.069524782096e-11       1.546903140866e-12      -2.716407277112e-15 
  101       3.048344118470e-10       1.124425562595e-13      -2.729833934600e-12       0.000000000000e+00       1.042224910486e-11       1.514854473980e-12      -2.577527034544e-15 
  102       3.082263108070e-10       1.135570896218e-13      -2.788858417418e-12       0.000000000000e+00       1.015830117828e-11       1.483803232112e-12      -2.444579743565e-15 
  103       3.116390617670e-10       1.146360649704e-13      -2.847497990829e-12       0.000000000000e+00       9.902524655339e-12       1.453672464971e-12      -2.320250072537e-15 
  104       3.150716292174e-10       1.156781984653e-13      -2.905704072088e-12       0.000000000000e+00       9.654107468298e-12       1.424389358091e-12      -2.206803985185e-15 
  105       3.185237771879e-10       1.166824179260e-13      -2.963427439775e-12       0.000000000000e+00       9.412942454551e-12       1.395942142242e-12      -2.104227799968e-15 
  106       3.219954056493e-10       1.176477190935e-13      -3.020618534124e-12       0.000000000000e+00       9.179068857691e-12       1.368330115030e-12      -2.011843639463e-15 
  107       3.254863147068e-10       1.185731155972e-13      -3.077227577702e-12       0.000000000000e+00       8.952474856284e-12       1.341545925608e-12      -1.928875562869e-15 
