# Matter power spectrum P(k) at redshift z=3
# for k=1.0432e-05 to 1.4771 h/Mpc,
# number of wavenumbers equal to 615
#    1:k (h/Mpc)              2:P (Mpc/h)^3        
       1.043203858107e-05       5.012933919548e+00 
       2.328336287074e-05       1.089841117239e+01 
       3.617969043499e-05       1.669231487673e+01 
       4.915556018874e-05       2.245238977349e+01 
       6.224607986307e-05       2.821219088834e+01 
       7.548723761814e-05       3.399728529123e+01 
       8.891622357819e-05       3.982980959428e+01 
       1.025717655470e-04       4.573034650599e+01 
       1.164944831948e-04       5.171889439974e+01 
       1.307272650411e-04       5.781546111190e+01 
       1.453156725643e-04       6.404048208983e+01 
       1.603083757138e-04       7.041515079144e+01 
       1.757576239250e-04       7.696170453208e+01 
       1.917197563824e-04       8.370368885053e+01 
       2.082557546339e-04       9.066621339455e+01 
       2.254318396162e-04       9.787620668667e+01 
       2.433201135287e-04       1.053626734934e+02 
       2.619992445935e-04       1.131569557125e+02 
       2.815551892817e-04       1.212929950774e+02 
       3.020819417627e-04       1.298075931486e+02 
       3.236822937690e-04       1.387406607389e+02 
       3.464685793631e-04       1.481354448728e+02 
       3.705633678892e-04       1.580387164436e+02 
       3.961000544162e-04       1.685008958423e+02 
       4.232232802468e-04       1.795760870361e+02 
       4.520890970737e-04       1.913219832036e+02 
       4.828647683773e-04       2.037995997405e+02 
       5.157280831274e-04       2.170727844185e+02 
       5.508660436999e-04       2.312074515128e+02 
       5.884727878050e-04       2.462704892838e+02 
       6.287466203191e-04       2.623283012913e+02 
       6.718860729945e-04       2.794449646645e+02 
       7.180849845625e-04       2.976800247646e+02 
       7.675267028620e-04       3.170859955615e+02 
       8.203776484022e-04       3.377056946009e+02 
       8.767806282067e-04       3.595696019023e+02 
       9.368484213359e-04       3.826934801239e+02 
       1.000658237325e-03       4.070765132577e+02 
       1.068247642349e-03       4.327001998364e+02 
       1.139612436808e-03       4.595281692202e+02 
       1.214706759774e-03       4.875069835053e+02 
       1.293445426622e-03       5.165678630653e+02 
       1.375708232608e-03       5.466291581211e+02 
       1.461345735733e-03       5.775993078278e+02 
       1.477104874446e-03       5.832625781833e+02 
       1.550185908858e-03       6.093799976099e+02 
       1.642041036854e-03       6.418692454958e+02 
       1.736714314152e-03       6.749642063373e+02 
       1.834005737311e-03       7.085635592256e+02 
       1.933717047152e-03       7.425694185765e+02 
       2.035655623465e-03       7.768876450210e+02 
       2.139637352437e-03       8.114312687581e+02 
       2.245488565732e-03       8.461204828169e+02 
       2.353047192901e-03       8.808814233150e+02 
       2.462163282900e-03       9.156470852272e+02 
       2.572699045022e-03       9.503571799716e+02 
       2.684528542637e-03       9.849578426945e+02 
       2.797537151129e-03       1.019401233230e+03 
       2.911620868665e-03       1.053645071014e+03 
       3.026685547352e-03       1.087652140038e+03 
       3.142646094342e-03       1.121389794283e+03 
       3.259425677672e-03       1.154829486704e+03 
       3.376954960156e-03       1.187946336403e+03 
       3.495171375908e-03       1.220718740289e+03 
       3.614018457716e-03       1.253128028567e+03 
       3.733445218924e-03       1.285158158869e+03 
       3.853405590391e-03       1.316795441926e+03 
       3.973857911008e-03       1.348028292262e+03 
       4.094764469009e-03       1.378846999328e+03 
       4.216091090563e-03       1.409243517014e+03 
       4.337806771782e-03       1.439211271381e+03 
       4.459883350251e-03       1.468744987368e+03 
       4.582295212196e-03       1.497840535049e+03 
       4.705019031673e-03       1.526494794984e+03 
       4.828033538359e-03       1.554705540981e+03 
       4.951319310836e-03       1.582471337706e+03 
       5.074858592537e-03       1.609791450229e+03 
       5.198635127795e-03       1.636665763019e+03 
       5.322634015723e-03       1.663094549994e+03 
       5.446841579884e-03       1.689078786408e+03 
       5.571245251950e-03       1.714619897527e+03 
       5.695833467746e-03       1.739719584502e+03 
       5.820595574263e-03       1.764379874581e+03 
       5.945521746401e-03       1.788603083217e+03 
       6.070602912330e-03       1.812391782546e+03 
       6.195830686503e-03       1.835748773347e+03 
       6.321197309463e-03       1.858677060082e+03 
       6.446695593693e-03       1.881179830483e+03 
       6.572318874837e-03       1.903260422286e+03 
       6.698060967708e-03       1.924922306564e+03 
       6.823916126569e-03       1.946169065131e+03 
       6.949879009218e-03       1.967004369570e+03 
       7.075944644481e-03       1.987431964592e+03 
       7.202108402754e-03       2.007455653719e+03 
       7.328365969272e-03       2.027079287962e+03 
       7.454713319827e-03       2.046306757789e+03 
       7.581146698685e-03       2.065141985444e+03 
       7.707662598475e-03       2.083588919671e+03 
       7.834257741866e-03       2.101651529843e+03 
       7.960929064836e-03       2.119333800474e+03 
       8.087673701397e-03       2.136639726342e+03 
       8.214488969622e-03       2.153573306678e+03 
       8.341372358851e-03       2.170138541028e+03 
       8.468321517977e-03       2.186339421082e+03 
       8.595334244689e-03       2.202179929479e+03 
       8.722408475608e-03       2.217664283211e+03 
       8.849542277208e-03       2.232796728580e+03 
       8.976733837483e-03       2.247580588020e+03 
       9.103981458256e-03       2.262019814221e+03 
       9.231283548111e-03       2.276118295456e+03 
       9.358638615860e-03       2.289879891720e+03 
       9.486045264523e-03       2.303308434080e+03 
       9.613502185767e-03       2.316407722721e+03 
       9.741008154760e-03       2.329181526850e+03 
       9.868562025420e-03       2.341633585026e+03 
       9.996162726014e-03       2.353767605598e+03 
       1.012380925508e-02       2.365587267466e+03 
       1.025150067764e-02       2.377096220478e+03 
       1.037923612173e-02       2.388298085851e+03 
       1.050701477512e-02       2.399196456312e+03 
       1.063483588229e-02       2.409794895503e+03 
       1.076269874168e-02       2.420096937303e+03 
       1.089060270304e-02       2.430106083563e+03 
       1.101854716504e-02       2.439825803404e+03 
       1.114653157299e-02       2.449259531019e+03 
       1.127455541681e-02       2.458410663495e+03 
       1.140261822903e-02       2.467282561375e+03 
       1.153071958301e-02       2.475878546289e+03 
       1.165885909127e-02       2.484201902611e+03 
       1.178703640389e-02       2.492255879670e+03 
       1.191525120709e-02       2.500043691801e+03 
       1.204350322185e-02       2.507568524150e+03 
       1.217179220268e-02       2.514833534097e+03 
       1.230011793643e-02       2.521841854139e+03 
       1.242848024122e-02       2.528596596456e+03 
       1.255687896540e-02       2.535100854132e+03 
       1.268531398664e-02       2.541357702059e+03 
       1.281378521107e-02       2.547370200238e+03 
       1.294229257242e-02       2.553141392471e+03 
       1.307083603136e-02       2.558674304518e+03 
       1.319941557473e-02       2.563971934403e+03 
       1.332803121494e-02       2.569037221454e+03 
       1.345668298940e-02       2.573873006431e+03 
       1.358537095993e-02       2.578482042379e+03 
       1.371409521232e-02       2.582867078567e+03 
       1.384285585584e-02       2.587030821853e+03 
       1.397165302285e-02       2.590976158619e+03 
       1.410048686842e-02       2.594705824196e+03 
       1.422935756996e-02       2.598222575035e+03 
       1.435826532698e-02       2.601529132711e+03 
       1.448721036075e-02       2.604628188493e+03 
       1.461619291409e-02       2.607522404818e+03 
       1.474521325118e-02       2.610214418832e+03 
       1.477104874446e-02       2.610729319022e+03 
       1.487427165732e-02       2.612706843583e+03 
       1.500336843884e-02       2.615002268328e+03 
       1.513250392293e-02       2.617103259485e+03 
       1.526167845751e-02       2.619012361528e+03 
       1.539089241124e-02       2.620732097046e+03 
       1.552014617334e-02       2.622264966910e+03 
       1.564944015368e-02       2.623613450674e+03 
       1.577877478266e-02       2.624780007472e+03 
       1.590815051130e-02       2.625767075303e+03 
       1.603756781119e-02       2.626577072234e+03 
       1.616702717463e-02       2.627212396856e+03 
       1.629652911462e-02       2.627675427335e+03 
       1.642607416499e-02       2.627968521794e+03 
       1.655566288046e-02       2.628094017776e+03 
       1.668529583685e-02       2.628054234484e+03 
       1.681497363111e-02       2.627851471768e+03 
       1.694469688158e-02       2.627488011139e+03 
       1.707446622810e-02       2.626966115013e+03 
       1.720428233224e-02       2.626288028327e+03 
       1.733414587748e-02       2.625455977266e+03 
       1.746405756948e-02       2.624472170115e+03 
       1.759401813629e-02       2.623338796699e+03 
       1.772402832860e-02       2.622058030089e+03 
       1.785408892009e-02       2.620632025017e+03 
       1.798420070762e-02       2.619062919330e+03 
       1.811436451163e-02       2.617352833415e+03 
       1.824458117642e-02       2.615503871010e+03 
       1.837485157051e-02       2.613518117331e+03 
       1.850517658700e-02       2.611397641218e+03 
       1.863555714395e-02       2.609144495364e+03 
       1.876599418477e-02       2.606760715997e+03 
       1.889648867862e-02       2.604248323515e+03 
       1.902704162086e-02       2.601609321485e+03 
       1.915765403351e-02       2.598845697057e+03 
       1.928832696567e-02       2.595959421170e+03 
       1.941906149404e-02       2.592952448355e+03 
       1.954985872340e-02       2.589826717425e+03 
       1.968071978714e-02       2.586584151029e+03 
       1.981164584780e-02       2.583226656583e+03 
       1.994263809763e-02       2.579756124979e+03 
       2.007369775914e-02       2.576174431476e+03 
       2.020482608573e-02       2.572483436496e+03 
       2.033602436230e-02       2.568684983861e+03 
       2.046729390589e-02       2.564780902737e+03 
       2.059863606630e-02       2.560773005255e+03 
       2.073005222684e-02       2.556663090089e+03 
       2.086154380497e-02       2.552452939260e+03 
       2.099311225309e-02       2.548144319354e+03 
       2.112475905921e-02       2.543738983326e+03 
       2.125648574781e-02       2.539238666510e+03 
       2.138829388057e-02       2.534645089811e+03 
       2.152018505723e-02       2.529959960312e+03 
       2.165216091643e-02       2.525184968188e+03 
       2.178422313659e-02       2.520321789183e+03 
       2.191637343682e-02       2.515372084294e+03 
       2.204861357783e-02       2.510337498372e+03 
       2.218094536292e-02       2.505219661856e+03 
       2.231337063894e-02       2.500020189820e+03 
       2.244589129737e-02       2.494740682929e+03 
       2.257850927531e-02       2.489382725812e+03 
       2.271122655660e-02       2.483947889005e+03 
       2.284404517295e-02       2.478437726977e+03 
       2.297696720506e-02       2.472853780562e+03 
       2.310999478388e-02       2.467197574250e+03 
       2.324313009177e-02       2.461470618224e+03 
       2.337637536382e-02       2.455674407120e+03 
       2.350973288912e-02       2.449810421834e+03 
       2.364320501216e-02       2.443880126862e+03 
       2.377679413419e-02       2.437884972375e+03 
       2.391050271464e-02       2.431826392988e+03 
       2.404433327267e-02       2.425705809477e+03 
       2.417828838865e-02       2.419524626612e+03 
       2.431237070576e-02       2.413284234570e+03 
       2.444658293160e-02       2.406986008280e+03 
       2.458092783992e-02       2.400631307603e+03 
       2.471540827234e-02       2.394221477440e+03 
       2.485002714012e-02       2.387757848537e+03 
       2.498478742606e-02       2.381241735553e+03 
       2.511969218640e-02       2.374674438642e+03 
       2.525474455279e-02       2.368057242061e+03 
       2.538994773439e-02       2.361391416312e+03 
       2.552530501990e-02       2.354678216355e+03 
       2.566081977983e-02       2.347918881080e+03 
       2.579649546874e-02       2.341114636355e+03 
       2.593233562753e-02       2.334266691902e+03 
       2.606834388596e-02       2.327376240976e+03 
       2.620452396505e-02       2.320444463884e+03 
       2.634087967976e-02       2.313472525064e+03 
       2.647741494162e-02       2.306461573126e+03 
       2.661413376150e-02       2.299412743866e+03 
       2.675104025253e-02       2.292327155193e+03 
       2.688813863307e-02       2.285205910305e+03 
       2.702543322973e-02       2.278050099604e+03 
       2.716292848066e-02       2.270860796345e+03 
       2.730062893881e-02       2.263639058431e+03 
       2.743853927536e-02       2.256385929598e+03 
       2.757666428330e-02       2.249102437297e+03 
       2.771500888114e-02       2.241789595343e+03 
       2.785357811669e-02       2.234448400767e+03 
       2.799237717107e-02       2.227079836563e+03 
       2.813141136287e-02       2.219684869903e+03 
       2.827068615235e-02       2.212264453364e+03 
       2.841020714597e-02       2.204819523188e+03 
       2.854998010098e-02       2.197351001194e+03 
       2.869001093021e-02       2.189859793227e+03 
       2.883030570711e-02       2.182346790122e+03 
       2.897087067089e-02       2.174812868830e+03 
       2.911171223196e-02       2.167258889007e+03 
       2.925283697751e-02       2.159685695857e+03 
       2.939425167742e-02       2.152094119311e+03 
       2.953596329028e-02       2.144484972727e+03 
       2.967797896976e-02       2.136859056148e+03 
       2.982030607121e-02       2.129217152378e+03 
       2.996295215858e-02       2.121560030561e+03 
       3.010592501150e-02       2.113888441893e+03 
       3.024923263287e-02       2.106203124533e+03 
       3.039288325660e-02       2.098504800412e+03 
       3.053688535576e-02       2.090794175460e+03 
       3.068124765111e-02       2.083071940096e+03 
       3.082597911993e-02       2.075338769681e+03 
       3.097108900535e-02       2.067595322213e+03 
       3.111658682603e-02       2.059842243055e+03 
       3.126248238626e-02       2.052080159599e+03 
       3.140878578661e-02       2.044309683592e+03 
       3.155550743499e-02       2.036531412419e+03 
       3.170265805827e-02       2.028745926366e+03 
       3.185024871446e-02       2.020953789814e+03 
       3.199829080542e-02       2.013155552212e+03 
       3.214679609025e-02       2.005351744775e+03 
       3.229577669925e-02       1.997542884197e+03 
       3.244524514866e-02       1.989729471730e+03 
       3.259521435605e-02       1.981911991935e+03 
       3.274569765651e-02       1.974090912293e+03 
       3.289670881967e-02       1.966266684510e+03 
       3.304826206758e-02       1.958439742726e+03 
       3.320037209353e-02       1.950610506394e+03 
       3.335305408178e-02       1.942779375194e+03 
       3.350632372845e-02       1.934946735279e+03 
       3.366019726340e-02       1.927112954598e+03 
       3.381469147339e-02       1.919278383773e+03 
       3.396982372641e-02       1.911443356352e+03 
       3.412561199741e-02       1.903608188617e+03 
       3.428207489545e-02       1.895773178660e+03 
       3.443923169235e-02       1.887938607393e+03 
       3.459710235298e-02       1.880104737889e+03 
       3.475570756729e-02       1.872271814421e+03 
       3.491506878423e-02       1.864440064333e+03 
       3.507520824761e-02       1.856609695276e+03 
       3.523614903412e-02       1.848780896326e+03 
       3.539791509366e-02       1.840953838102e+03 
       3.556053129207e-02       1.833128670307e+03 
       3.572402345655e-02       1.825305524489e+03 
       3.588841842389e-02       1.817484511582e+03 
       3.605374409169e-02       1.809665721883e+03 
       3.622002947295e-02       1.801849226277e+03 
       3.638730475416e-02       1.794035073367e+03 
       3.655560135711e-02       1.786223290548e+03 
       3.672495200494e-02       1.778413883826e+03 
       3.689539079252e-02       1.770606835234e+03 
       3.706695326169e-02       1.762802105360e+03 
       3.723967648166e-02       1.754999630008e+03 
       3.741359913503e-02       1.747199322261e+03 
       3.758876160995e-02       1.739401069345e+03 
       3.776520609885e-02       1.731604733334e+03 
       3.794297670440e-02       1.723810149909e+03 
       3.812211955328e-02       1.716017127823e+03 
       3.830268291854e-02       1.708225448257e+03 
       3.848471735116e-02       1.700434862263e+03 
       3.866827582188e-02       1.692645092159e+03 
       3.885341387404e-02       1.684855829549e+03 
       3.904018978869e-02       1.677066733487e+03 
       3.922866476292e-02       1.669277429467e+03 
       3.941890310286e-02       1.661487508793e+03 
       3.961097243281e-02       1.653696526014e+03 
       3.980494392200e-02       1.645903998033e+03 
       4.000089253088e-02       1.638109402609e+03 
       4.019889727895e-02       1.630312174834e+03 
       4.039904153642e-02       1.622511708495e+03 
       4.060141334222e-02       1.614707350344e+03 
       4.080610575127e-02       1.606898399225e+03 
       4.101321721426e-02       1.599084103065e+03 
       4.122285199361e-02       1.591263656407e+03 
       4.143512061978e-02       1.583436197080e+03 
       4.165014039266e-02       1.575600802395e+03 
       4.186803593344e-02       1.567756486088e+03 
       4.208893979301e-02       1.559902193828e+03 
       4.231299312407e-02       1.552036798058e+03 
       4.254034642478e-02       1.544159093492e+03 
       4.277116036336e-02       1.536267791342e+03 
       4.300560669418e-02       1.528361513194e+03 
       4.324386927750e-02       1.520438783930e+03 
       4.348614521734e-02       1.512498024251e+03 
       4.373264613360e-02       1.504537542110e+03 
       4.398359958791e-02       1.496555522958e+03 
       4.423925068537e-02       1.488550018344e+03 
       4.449986387860e-02       1.480518934640e+03 
       4.476572500467e-02       1.472460018815e+03 
       4.503714359144e-02       1.464370842540e+03 
       4.531445547609e-02       1.456248785564e+03 
       4.559802578687e-02       1.448091013651e+03 
       4.588825234873e-02       1.439894456611e+03 
       4.618556958541e-02       1.431655780225e+03 
       4.649045300504e-02       1.423371356950e+03 
       4.680342437424e-02       1.415037227628e+03 
       4.712505770765e-02       1.406649060662e+03 
       4.745598622708e-02       1.398202101597e+03 
       4.779691047847e-02       1.389691114111e+03 
       4.814860783717e-02       1.381110309923e+03 
       4.851194368532e-02       1.372453266200e+03 
       4.888788461191e-02       1.363712823652e+03 
       4.927751407075e-02       1.354880962439e+03 
       4.968205103914e-02       1.345948653905e+03 
       5.010287235596e-02       1.336905674887e+03 
       5.054153959232e-02       1.327740375591e+03 
       5.099983152900e-02       1.318439391562e+03 
       5.147978359760e-02       1.308987272658e+03 
       5.198373599975e-02       1.299366017380e+03 
       5.251439266952e-02       1.289554457862e+03 
       5.307489380193e-02       1.279527467583e+03 
       5.366890534382e-02       1.269254903461e+03 
       5.430072961754e-02       1.258700197190e+03 
       5.497544205481e-02       1.247818454126e+03 
       5.569905967846e-02       1.236553845663e+03 
       5.647874707017e-02       1.224836036297e+03 
       5.732306423605e-02       1.212575212729e+03 
       5.824225630278e-02       1.199655183756e+03 
       5.924857408708e-02       1.185923834246e+03 
