# Matter power spectrum P(k) at redshift z=0
# for k=1.0432e-05 to 1.4771 h/Mpc,
# number of wavenumbers equal to 615
#    1:k (h/Mpc)              2:P (Mpc/h)^3        
       1.043203858107e-05       5.025461770693e+01 
       2.328526499299e-05       1.092648236560e+02 
       3.618351053270e-05       1.673561915787e+02 
       4.916132949016e-05       2.251074423127e+02 
       6.225384535571e-05       2.828547049323e+02 
       7.549706266477e-05       3.408539848301e+02 
       8.892818877439e-05       3.993268558635e+02 
       1.025859698343e-04       4.584792674758e+02 
       1.165110452481e-04       5.185112557998e+02 
       1.307463249527e-04       5.796228852678e+02 
       1.453373938529e-04       6.420184270518e+02 
       1.603329476884e-04       7.059096553426e+02 
       1.757852644411e-04       7.715186941423e+02 
       1.917507150262e-04       8.390806454208e+02 
       2.082903163777e-04       9.088461284580e+02 
       2.254703289828e-04       9.810838036372e+02 
       2.433628993028e-04       1.056082917504e+03 
       2.620467451093e-04       1.134155877841e+03 
       2.816078783021e-04       1.215640841483e+03 
       3.021403549427e-04       1.300904269579e+03 
       3.237470356599e-04       1.390343372321e+03 
       3.465403308664e-04       1.484388325469e+03 
       3.706428939957e-04       1.583504092944e+03 
       3.961882119742e-04       1.688191632598e+03 
       4.233210253826e-04       1.798988196814e+03 
       4.521974917403e-04       1.916466368913e+03 
       4.829849853370e-04       2.041231407100e+03 
       5.158614084961e-04       2.173916411013e+03 
       5.510138760099e-04       2.315174799088e+03 
       5.886366324284e-04       2.465669610960e+03 
       6.289280780748e-04       2.626059255526e+03 
       6.720868219080e-04       2.796979539749e+03 
       7.183067541151e-04       2.979022154644e+03 
       7.677712406959e-04       3.172710262194e+03 
       8.206466803275e-04       3.378472385637e+03 
       8.770758133986e-04       3.596616378827e+03 
       9.371713056489e-04       3.827305721120e+03 
       1.001010208442e-03       4.070540613606e+03 
       1.068629890791e-03       4.326146216939e+03 
       1.140025926480e-03       4.593769807231e+03 
       1.215152210722e-03       4.872887671410e+03 
       1.293923311177e-03       5.162821367483e+03 
       1.376218784440e-03       5.462761780134e+03 
       1.461888969862e-03       5.771798478844e+03 
       1.477104874446e-03       5.826346052971e+03 
       1.550761649679e-03       6.088951448324e+03 
       1.642648950827e-03       6.413202383618e+03 
       1.737353943963e-03       6.743523322950e+03 
       1.834676534874e-03       7.078901192720e+03 
       1.934418403564e-03       7.418357600541e+03 
       2.036386894806e-03       7.760952400378e+03 
       2.140397880968e-03       8.105818787506e+03 
       2.246277696557e-03       8.452162362438e+03 
       2.353864286463e-03       8.799249089639e+03 
       2.463007723884e-03       9.146413690459e+03 
       2.573570248275e-03       9.493057644186e+03 
       2.685425956720e-03       9.838645919959e+03 
       2.798460260047e-03       1.018270292523e+04 
       2.912569192239e-03       1.052480799064e+04 
       3.027658640626e-03       1.086459063059e+04 
       3.143643546325e-03       1.120172579994e+04 
       3.260447109651e-03       1.153592935413e+04 
       3.378000023759e-03       1.186695382402e+04 
       3.496239751050e-03       1.219458457648e+04 
       3.615109850509e-03       1.251863628504e+04 
       3.734559359633e-03       1.283894973263e+04 
       3.854542231460e-03       1.315538894198e+04 
       3.975016825195e-03       1.346783863127e+04 
       4.095945447644e-03       1.377620195736e+04 
       4.217293941923e-03       1.408039849658e+04 
       4.339031319604e-03       1.438036241110e+04 
       4.461129432360e-03       1.467604078444e+04 
       4.583562679255e-03       1.496739212290e+04 
       4.706307746047e-03       1.525438502255e+04 
       4.829343373080e-03       1.553699727857e+04 
       4.952650148664e-03       1.581521410997e+04 
       5.076210325108e-03       1.608902757818e+04 
       5.200007654854e-03       1.635843574380e+04 
       5.324027244422e-03       1.662344035534e+04 
       5.448255424156e-03       1.688405010159e+04 
       5.572679631932e-03       1.714027798838e+04 
       5.697288309263e-03       1.739213976017e+04 
       5.822070808361e-03       1.763965440782e+04 
       5.947017308918e-03       1.788284380665e+04 
       6.072118743512e-03       1.812173239877e+04 
       6.197366730654e-03       1.835634689632e+04 
       6.322753514627e-03       1.858671601828e+04 
       6.448271911363e-03       1.881287026752e+04 
       6.573915259694e-03       1.903484160034e+04 
       6.699677377381e-03       1.925266326558e+04 
       6.825552521414e-03       1.946636959070e+04 
       6.951535352120e-03       1.967599578501e+04 
       7.077620900672e-03       1.988157778076e+04 
       7.203804539647e-03       2.008315208884e+04 
       7.330081956308e-03       2.028075568109e+04 
       7.456449128336e-03       2.047442590288e+04 
       7.582902301755e-03       2.066420039119e+04 
       7.709437970839e-03       2.085011702414e+04 
       7.836052859791e-03       2.103221387246e+04 
       7.962743906027e-03       2.121052915825e+04 
       8.089508244901e-03       2.138510122525e+04 
       8.216343195747e-03       2.155596849338e+04 
       8.343246249090e-03       2.172316942715e+04 
       8.470215054934e-03       2.188674248622e+04 
       8.597247412014e-03       2.204672608043e+04 
       8.724341257934e-03       2.220315852283e+04 
       8.851494660100e-03       2.235607797553e+04 
       8.978705807380e-03       2.250552241115e+04 
       9.105973002427e-03       2.265152956401e+04 
       9.233294654608e-03       2.279413690577e+04 
       9.360669273476e-03       2.293338161678e+04 
       9.488095462756e-03       2.306930058211e+04 
       9.615571914783e-03       2.320193039064e+04 
       9.743097405359e-03       2.333130734361e+04 
       9.870670789008e-03       2.345746746972e+04 
       9.998290994571e-03       2.358044653542e+04 
       1.012595702113e-02       2.370028006262e+04 
       1.025366793425e-02       2.381700333383e+04 
       1.038142286245e-02       2.393065139833e+04 
       1.050922099397e-02       2.404125906686e+04 
       1.063706157378e-02       2.414886090238e+04 
       1.076494390074e-02       2.425349119972e+04 
       1.089286732503e-02       2.435518396292e+04 
       1.102083124572e-02       2.445397288151e+04 
       1.114883510854e-02       2.454989130481e+04 
       1.127687840375e-02       2.464297222538e+04 
       1.140496066427e-02       2.473324826767e+04 
       1.153308146382e-02       2.482075168949e+04 
       1.166124041524e-02       2.490551439333e+04 
       1.178943716895e-02       2.498756795084e+04 
       1.191767141150e-02       2.506694363340e+04 
       1.204594286418e-02       2.514367245585e+04 
       1.217425128180e-02       2.521778520690e+04 
       1.230259645152e-02       2.528931248923e+04 
       1.243097819173e-02       2.535828474860e+04 
       1.255939635108e-02       2.542473229267e+04 
       1.268785080751e-02       2.548868530708e+04 
       1.281634146742e-02       2.555017386498e+04 
       1.294486826482e-02       2.560922791677e+04 
       1.307343116062e-02       2.566587727397e+04 
       1.320203014193e-02       2.572015146646e+04 
       1.333066522141e-02       2.577207937238e+04 
       1.345933643672e-02       2.582168877839e+04 
       1.358804384992e-02       2.586900652608e+04 
       1.371678754706e-02       2.591405952036e+04 
       1.384556763765e-02       2.595687434955e+04 
       1.397438425427e-02       2.599747958060e+04 
       1.410323755224e-02       2.603590224738e+04 
       1.423212770920e-02       2.607216962127e+04 
       1.436105492490e-02       2.610630863489e+04 
       1.449001942083e-02       2.613834592242e+04 
       1.461902144005e-02       2.616830785563e+04 
       1.474806124698e-02       2.619622056817e+04 
       1.477104874446e-02       2.620097912888e+04 
       1.487713912714e-02       2.622210997112e+04 
       1.500625538709e-02       2.624600176214e+04 
       1.513541035424e-02       2.626792143198e+04 
       1.526460437677e-02       2.628789426948e+04 
       1.539383782354e-02       2.630594536369e+04 
       1.552311108403e-02       2.632209960822e+04 
       1.565242456831e-02       2.633638170325e+04 
       1.578177870704e-02       2.634881615808e+04 
       1.591117395146e-02       2.635942729353e+04 
       1.604061077341e-02       2.636823924377e+04 
       1.617008966542e-02       2.637527595871e+04 
       1.629961114072e-02       2.638056120580e+04 
       1.642917573338e-02       2.638411857210e+04 
       1.655878399839e-02       2.638597146591e+04 
       1.668843651179e-02       2.638614311872e+04 
       1.681813387079e-02       2.638465658682e+04 
       1.694787669398e-02       2.638153475314e+04 
       1.707766562145e-02       2.637680032884e+04 
       1.720750131502e-02       2.637047585499e+04 
       1.733738445844e-02       2.636258370377e+04 
       1.746731575764e-02       2.635314608016e+04 
       1.759729594091e-02       2.634218502377e+04 
       1.772732575924e-02       2.632972240803e+04 
       1.785740598656e-02       2.631577994418e+04 
       1.798753742002e-02       2.630037918096e+04 
       1.811772088034e-02       2.628354150548e+04 
       1.824795721211e-02       2.626528814478e+04 
       1.837824728414e-02       2.624564016647e+04 
       1.850859198982e-02       2.622461847975e+04 
       1.863899224751e-02       2.620224383656e+04 
       1.876944900093e-02       2.617853683124e+04 
       1.889996321954e-02       2.615351790317e+04 
       1.903053589904e-02       2.612720733532e+04 
       1.916116806174e-02       2.609962525657e+04 
       1.929186075709e-02       2.607079164151e+04 
       1.942261506211e-02       2.604072631091e+04 
       1.955343208192e-02       2.600944893366e+04 
       1.968431295027e-02       2.597697902441e+04 
       1.981525883004e-02       2.594333594653e+04 
       1.994627091383e-02       2.590853891211e+04 
       2.007735042453e-02       2.587260698081e+04 
       2.020849861592e-02       2.583555906207e+04 
       2.033971677326e-02       2.579741391475e+04 
       2.047100621398e-02       2.575819014666e+04 
       2.060236828830e-02       2.571790621580e+04 
       2.073380437990e-02       2.567658042986e+04 
       2.086531590668e-02       2.563423094679e+04 
       2.099690432144e-02       2.559087577494e+04 
       2.112857111263e-02       2.554653277330e+04 
       2.126031780517e-02       2.550121965153e+04 
       2.139214596118e-02       2.545495396881e+04 
       2.152405718086e-02       2.540775313614e+04 
       2.165605310332e-02       2.535963441520e+04 
       2.178813540746e-02       2.531061491812e+04 
       2.192030581287e-02       2.526071160770e+04 
       2.205256608076e-02       2.520994129775e+04 
       2.218491801494e-02       2.515832065246e+04 
       2.231736346279e-02       2.510586618729e+04 
       2.244990431631e-02       2.505259426787e+04 
       2.258254251315e-02       2.499852110986e+04 
       2.271528003771e-02       2.494366278089e+04 
       2.284811892226e-02       2.488803519779e+04 
       2.298106124810e-02       2.483165412763e+04 
       2.311410914676e-02       2.477453518817e+04 
       2.324726480122e-02       2.471669384680e+04 
       2.338053044718e-02       2.465814542115e+04 
       2.351390837439e-02       2.459890507864e+04 
       2.364740092798e-02       2.453898783548e+04 
       2.378101050987e-02       2.447840855857e+04 
       2.391473958019e-02       2.441718196382e+04 
       2.404859065879e-02       2.435532261527e+04 
       2.418256632677e-02       2.429284492706e+04 
       2.431666922802e-02       2.422976316236e+04 
       2.445090207093e-02       2.416609143258e+04 
       2.458526763001e-02       2.410184369665e+04 
       2.471976874766e-02       2.403703376364e+04 
       2.485440833597e-02       2.397167529001e+04 
       2.498918937857e-02       2.390578178032e+04 
       2.512411493255e-02       2.383936658706e+04 
       2.525918813044e-02       2.377244290962e+04 
       2.539441218228e-02       2.370502379620e+04 
       2.552979037771e-02       2.363712214143e+04 
       2.566532608818e-02       2.356875068787e+04 
       2.580102276920e-02       2.349992202386e+04 
       2.593688396270e-02       2.343064858633e+04 
       2.607291329942e-02       2.336094265737e+04 
       2.620911450146e-02       2.329081636719e+04 
       2.634549138483e-02       2.322028169009e+04 
       2.648204786216e-02       2.314935044810e+04 
       2.661878794548e-02       2.307803430995e+04 
       2.675571574906e-02       2.300634478941e+04 
       2.689283549244e-02       2.293429324564e+04 
       2.703015150349e-02       2.286189088455e+04 
       2.716766822160e-02       2.278914875674e+04 
       2.730539020101e-02       2.271607775835e+04 
       2.744332211424e-02       2.264268863087e+04 
       2.758146875565e-02       2.256899196055e+04 
       2.771983504513e-02       2.249499817900e+04 
       2.785842603196e-02       2.242071756225e+04 
       2.799724689875e-02       2.234616023096e+04 
       2.813630296558e-02       2.227133615090e+04 
       2.827559969431e-02       2.219625513194e+04 
       2.841514269302e-02       2.212092682709e+04 
       2.855493772061e-02       2.204536073524e+04 
       2.869499069163e-02       2.196956619832e+04 
       2.883530768129e-02       2.189355240133e+04 
       2.897589493061e-02       2.181732837448e+04 
       2.911675885188e-02       2.174090299025e+04 
       2.925790603422e-02       2.166428496487e+04 
       2.939934324947e-02       2.158748285796e+04 
       2.954107745828e-02       2.151050507122e+04 
       2.968311581642e-02       2.143335985050e+04 
       2.982546568144e-02       2.135605528321e+04 
       2.996813461949e-02       2.127859929908e+04 
       3.011113041253e-02       2.120099967097e+04 
       3.025446106585e-02       2.112326401269e+04 
       3.039813481581e-02       2.104539978048e+04 
       3.054216013802e-02       2.096741427123e+04 
       3.068654575585e-02       2.088931462363e+04 
       3.083130064931e-02       2.081110781768e+04 
       3.097643406431e-02       2.073280067224e+04 
       3.112195552240e-02       2.065439984800e+04 
       3.126787483087e-02       2.057591184521e+04 
       3.141420209335e-02       2.049734300303e+04 
       3.156094772095e-02       2.041869949994e+04 
       3.170812244385e-02       2.033998735279e+04 
       3.185573732347e-02       2.026121241764e+04 
       3.200380376521e-02       2.018238038638e+04 
       3.215233353182e-02       2.010349678913e+04 
       3.230133875740e-02       2.002456699202e+04 
       3.245083196211e-02       1.994559619742e+04 
       3.260082606758e-02       1.986658944240e+04 
       3.275133441313e-02       1.978755159740e+04 
       3.290237077275e-02       1.970848736894e+04 
       3.305394937305e-02       1.962940129373e+04 
       3.320608491200e-02       1.955029774121e+04 
       3.335879257876e-02       1.947118091176e+04 
       3.351208807453e-02       1.939205483523e+04 
       3.366598763443e-02       1.931292336984e+04 
       3.382050805071e-02       1.923379020156e+04 
       3.397566669705e-02       1.915465884171e+04 
       3.413148155433e-02       1.907553262676e+04 
       3.428797123778e-02       1.899641471659e+04 
       3.444515502564e-02       1.891730809092e+04 
       3.460305288945e-02       1.883821555101e+04 
       3.476168552614e-02       1.875913971511e+04 
       3.492107439191e-02       1.868008301655e+04 
       3.508124173816e-02       1.860104770404e+04 
       3.524221064947e-02       1.852203583592e+04 
       3.540400508400e-02       1.844304928048e+04 
       3.556664991620e-02       1.836408971146e+04 
       3.573017098228e-02       1.828515860718e+04 
       3.589459512844e-02       1.820625724533e+04 
       3.605995026213e-02       1.812738670076e+04 
       3.622626540669e-02       1.804854784201e+04 
       3.639357075937e-02       1.796974132761e+04 
       3.656189775331e-02       1.789096760169e+04 
       3.673127912350e-02       1.781222689036e+04 
       3.690174897728e-02       1.773351919544e+04 
       3.707334286957e-02       1.765484429265e+04 
       3.724609788331e-02       1.757620172330e+04 
       3.742005271557e-02       1.749759078799e+04 
       3.759524776969e-02       1.741901054458e+04 
       3.777172525411e-02       1.734045979857e+04 
       3.794952928836e-02       1.726193709469e+04 
       3.812870601694e-02       1.718344071265e+04 
       3.830930373164e-02       1.710496865664e+04 
       3.849137300328e-02       1.702651864834e+04 
       3.867496682355e-02       1.694808811450e+04 
       3.886014075799e-02       1.686967417805e+04 
       3.904695311112e-02       1.679127364998e+04 
       3.923546510491e-02       1.671288301334e+04 
       3.942574107191e-02       1.663449840704e+04 
       3.961784866447e-02       1.655611562254e+04 
       3.981185908161e-02       1.647773007978e+04 
       4.000784731551e-02       1.639933681229e+04 
       4.020589241947e-02       1.632093045103e+04 
       4.040607779972e-02       1.624250520470e+04 
       4.060849153368e-02       1.616405483692e+04 
       4.081322671738e-02       1.608557264319e+04 
       4.102038184552e-02       1.600705142840e+04 
       4.123006122770e-02       1.592848347596e+04 
       4.144237544498e-02       1.584986051998e+04 
       4.165744185162e-02       1.577117371044e+04 
       4.187538512731e-02       1.569241357850e+04 
       4.209633788598e-02       1.561356999594e+04 
       4.232044134834e-02       1.553463213059e+04 
       4.254784608609e-02       1.545558839783e+04 
       4.277871284706e-02       1.537642640842e+04 
       4.301321347190e-02       1.529713290659e+04 
       4.325153191467e-02       1.521769370713e+04 
       4.349386538143e-02       1.513809361475e+04 
       4.374042560337e-02       1.505831635007e+04 
       4.399144026369e-02       1.497834445234e+04 
       4.424715460061e-02       1.489815917406e+04 
       4.450783321278e-02       1.481774036845e+04 
       4.477376209789e-02       1.473706635314e+04 
       4.504525096079e-02       1.465611375978e+04 
       4.532263583429e-02       1.457485736445e+04 
       4.560628206328e-02       1.449326989173e+04 
       4.589658771340e-02       1.441132178536e+04 
       4.619398747642e-02       1.432898095440e+04 
       4.649895715992e-02       1.424621246653e+04 
       4.681201886605e-02       1.416297820041e+04 
       4.713374698664e-02       1.407923643473e+04 
       4.746477516889e-02       1.399494136237e+04 
       4.780580444025e-02       1.391004251979e+04 
       4.815761272309e-02       1.382448410350e+04 
       4.852106602335e-02       1.373820414959e+04 
       4.889713164428e-02       1.365113354724e+04 
       4.928689386103e-02       1.356319483077e+04 
       4.969157259944e-02       1.347430070355e+04 
       5.011254579891e-02       1.338435220984e+04 
       5.055137631349e-02       1.329323645167e+04 
       5.100984442691e-02       1.320082371704e+04 
       5.148998734035e-02       1.310696382467e+04 
       5.199414734972e-02       1.301148143148e+04 
       5.252503088047e-02       1.291416993620e+04 
       5.308578110648e-02       1.281478348720e+04 
       5.368006755372e-02       1.271302637069e+04 
       5.431219686392e-02       1.260853879048e+04 
       5.498724970043e-02       1.250087756073e+04 
       5.571124943735e-02       1.238948970138e+04 
       5.649136836867e-02       1.227367591357e+04 
       5.733617583682e-02       1.215253979979e+04 
       5.825592817618e-02       1.202491705522e+04 
       5.926288943031e-02       1.188927708324e+04 
