# Matter power spectrum P(k) at redshift z=3
# for k=1.0432e-05 to 1.4771 h/Mpc,
# number of wavenumbers equal to 615
#    1:k (h/Mpc)              2:P (Mpc/h)^3        
       1.043203858107e-05       5.012997556116e+00 
       2.328199309240e-05       1.089792945678e+01 
       3.617693946406e-05       1.669129963831e+01 
       4.915140554175e-05       2.245084069216e+01 
       6.224048771078e-05       2.821010050184e+01 
       7.548016234213e-05       3.399464024879e+01 
       8.890760715363e-05       3.982659103038e+01 
       1.025615367414e-04       4.572653006235e+01 
       1.164825565696e-04       5.171445005117e+01 
       1.307135397391e-04       5.781035285282e+01 
       1.453000308644e-04       6.403466750363e+01 
       1.602906813288e-04       7.040858051012e+01 
       1.757377200186e-04       7.695432158658e+01 
       1.916974632766e-04       8.369542790873e+01 
       2.082308671790e-04       9.065699988176e+01 
       2.254041241930e-04       9.786595578319e+01 
       2.432893046578e-04       1.053512890044e+02 
       2.619650411297e-04       1.131443288079e+02 
       2.815172501823e-04       1.212790029019e+02 
       3.020398814363e-04       1.297920973102e+02 
       3.236356770331e-04       1.387235056901e+02 
       3.464169160797e-04       1.481164562109e+02 
       3.705061073939e-04       1.580176991723e+02 
       3.960365799253e-04       1.684776326515e+02 
       4.231529035151e-04       1.795503366800e+02 
       4.520110536772e-04       1.912934790742e+02 
       4.827782141224e-04       2.037680487513e+02 
       5.156320922133e-04       2.170378663176e+02 
       5.507596093832e-04       2.311688187308e+02 
       5.883548264021e-04       2.462277673734e+02 
       6.286159793919e-04       2.622810899245e+02 
       6.717415444624e-04       2.793928390003e+02 
       7.179253232197e-04       2.976225367936e+02 
       7.673506503250e-04       3.170226747822e+02 
       8.201839618834e-04       3.376360471274e+02 
       8.765681127562e-04       3.594931069271e+02 
       9.366159634489e-04       3.826095826473e+02 
       1.000404837241e-03       4.069846122502e+02 
       1.067972442143e-03       4.325996315739e+02 
       1.139314741631e-03       4.594181863934e+02 
       1.214386050310e-03       4.873867317105e+02 
       1.293101361907e-03       5.164363571861e+02 
       1.375340643557e-03       5.464852616263e+02 
       1.460954610771e-03       5.774417179137e+02 
       1.477104874446e-03       5.832442757799e+02 
       1.549771373766e-03       6.092072383190e+02 
       1.641603331249e-03       6.416796695954e+02 
       1.736253766895e-03       6.747560050909e+02 
       1.833522742743e-03       7.083347777392e+02 
       1.933212043515e-03       7.423179734154e+02 
       2.035129074311e-03       7.766113510762e+02 
       2.139089731344e-03       8.111278211784e+02 
       2.244920344298e-03       8.457874932375e+02 
       2.352458831726e-03       8.805164110676e+02 
       2.461555225165e-03       9.152474739328e+02 
       2.572071712215e-03       9.499202923286e+02 
       2.683882331983e-03       9.844808963484e+02 
       2.796872434344e-03       1.018881340300e+03 
       2.910937991673e-03       1.053079243024e+03 
       3.025984830717e-03       1.087037298714e+03 
       3.141927834166e-03       1.120722787645e+03 
       3.258690146808e-03       1.154107108823e+03 
       3.376202409602e-03       1.187165348760e+03 
       3.494402036289e-03       1.219875892612e+03 
       3.613232540780e-03       1.252220077421e+03 
       3.732642919024e-03       1.284181882849e+03 
       3.852587085897e-03       1.315747653055e+03 
       3.973023365655e-03       1.346905843726e+03 
       4.093914033155e-03       1.377646790177e+03 
       4.215224902351e-03       1.407962494635e+03 
       4.336924958219e-03       1.437846432611e+03 
       4.458986028193e-03       1.467293379042e+03 
       4.581382489247e-03       1.496299254635e+03 
       4.704091007007e-03       1.524860991815e+03 
       4.827090303464e-03       1.552976418459e+03 
       4.950360950190e-03       1.580644156692e+03 
       5.073885184222e-03       1.607863533682e+03 
       5.197646744051e-03       1.634634501761e+03 
       5.321630723450e-03       1.660957411292e+03 
       5.445823441100e-03       1.686833314983e+03 
       5.570212324202e-03       1.712263728157e+03 
       5.694785804479e-03       1.737250445893e+03 
       5.819533225164e-03       1.761795593907e+03 
       5.944444757702e-03       1.785901589039e+03 
       6.069511327086e-03       1.809571106051e+03 
       6.194724544846e-03       1.832807048238e+03 
       6.320076648831e-03       1.855612521294e+03 
       6.445560449038e-03       1.877990812626e+03 
       6.571169278813e-03       1.899945357997e+03 
       6.696896950847e-03       1.921479725252e+03 
       6.822737717436e-03       1.942597592518e+03 
       6.948686234556e-03       1.963302727848e+03 
       7.074737529341e-03       1.983598973145e+03 
       7.200886970618e-03       2.003490230244e+03 
       7.327130242159e-03       2.022980448397e+03 
       7.453463318397e-03       2.042073618842e+03 
       7.579882442328e-03       2.060773762412e+03 
       7.706384105397e-03       2.079084927343e+03 
       7.832965029168e-03       2.097011181332e+03 
       7.959622148585e-03       2.114556604899e+03 
       8.086352596689e-03       2.131725287069e+03 
       8.213153690645e-03       2.148521319102e+03 
       8.340022918943e-03       2.164948790908e+03 
       8.466957929672e-03       2.181011783177e+03 
       8.593956519770e-03       2.196714348394e+03 
       8.721016625145e-03       2.212060812812e+03 
       8.848136311605e-03       2.227055506387e+03 
       8.975313766510e-03       2.241701809986e+03 
       9.102547291088e-03       2.256003775753e+03 
       9.229835293358e-03       2.269965365050e+03 
       9.357176281597e-03       2.283590517443e+03 
       9.484568858318e-03       2.296883141414e+03 
       9.612011714706e-03       2.309847113464e+03 
       9.739503625473e-03       2.322486277445e+03 
       9.867043444102e-03       2.334804444224e+03 
       9.994630098442e-03       2.346805391658e+03 
       1.012226258664e-02       2.358492866031e+03 
       1.024993997334e-02       2.369870581376e+03 
       1.037766138621e-02       2.380942220514e+03 
       1.050542601268e-02       2.391711433526e+03 
       1.063323309690e-02       2.402181841061e+03 
       1.076108193699e-02       2.412357030236e+03 
       1.088897188240e-02       2.422240554974e+03 
       1.101690233148e-02       2.431835934799e+03 
       1.114487272930e-02       2.441146654745e+03 
       1.127288256548e-02       2.450176161905e+03 
       1.140093137229e-02       2.458927866103e+03 
       1.152901872284e-02       2.467405139347e+03 
       1.165714422940e-02       2.475611315166e+03 
       1.178530754180e-02       2.483549691576e+03 
       1.191350834604e-02       2.491223530526e+03 
       1.204174636288e-02       2.498636061296e+03 
       1.217002134661e-02       2.505790482341e+03 
       1.229833308385e-02       2.512689964641e+03 
       1.242668139252e-02       2.519337653025e+03 
       1.255506612076e-02       2.525736667787e+03 
       1.268348714606e-02       2.531890107192e+03 
       1.281194437433e-02       2.537801048135e+03 
       1.294043773913e-02       2.543472547354e+03 
       1.306896720092e-02       2.548907638548e+03 
       1.319753274637e-02       2.554109327298e+03 
       1.332613438771e-02       2.559080568672e+03 
       1.345477216215e-02       2.563824241022e+03 
       1.358344613135e-02       2.568343149608e+03 
       1.371215638092e-02       2.572640088915e+03 
       1.384090301996e-02       2.576717796702e+03 
       1.396968618066e-02       2.580579167508e+03 
       1.409850601790e-02       2.584226945826e+03 
       1.422736270895e-02       2.587663894324e+03 
       1.435625645312e-02       2.590892743786e+03 
       1.448518747153e-02       2.593916193538e+03 
       1.461415600685e-02       2.596736913365e+03 
       1.474316232306e-02       2.599357548205e+03 
       1.477104874446e-02       2.599897891569e+03 
       1.487220670532e-02       2.601780715581e+03 
       1.500128945979e-02       2.604009009775e+03 
       1.513041091347e-02       2.606045000435e+03 
       1.525957141415e-02       2.607891233847e+03 
       1.538877133028e-02       2.609550234123e+03 
       1.551801105097e-02       2.611024502786e+03 
       1.564729098587e-02       2.612316519695e+03 
       1.577661156525e-02       2.613428743949e+03 
       1.590597323993e-02       2.614363609304e+03 
       1.603537648136e-02       2.615123538472e+03 
       1.616482178164e-02       2.615710936918e+03 
       1.629430965362e-02       2.616128185511e+03 
       1.642384063094e-02       2.616377636642e+03 
       1.655341526816e-02       2.616461617005e+03 
       1.668303414091e-02       2.616382434815e+03 
       1.681269784597e-02       2.616142380157e+03 
       1.694240700149e-02       2.615743726151e+03 
       1.707216224714e-02       2.615188727253e+03 
       1.720196424430e-02       2.614479621292e+03 
       1.733181367626e-02       2.613618625019e+03 
       1.746171124849e-02       2.612607937231e+03 
       1.759165768884e-02       2.611449737185e+03 
       1.772165374784e-02       2.610146183147e+03 
       1.785170019893e-02       2.608699417613e+03 
       1.798179783879e-02       2.607111566542e+03 
       1.811194748766e-02       2.605384739914e+03 
       1.824214998964e-02       2.603521024073e+03 
       1.837240621302e-02       2.601522480700e+03 
       1.850271705070e-02       2.599391153847e+03 
       1.863308342052e-02       2.597129075291e+03 
       1.876350626567e-02       2.594738265766e+03 
       1.889398655509e-02       2.592220733487e+03 
       1.902452528392e-02       2.589578471383e+03 
       1.915512347393e-02       2.586813451036e+03 
       1.928578217400e-02       2.583927622001e+03 
       1.941650246057e-02       2.580922915723e+03 
       1.954728543820e-02       2.577801252404e+03 
       1.967813224002e-02       2.574564536820e+03 
       1.980904402832e-02       2.571214652824e+03 
       1.994002199509e-02       2.567753475007e+03 
       2.007106736257e-02       2.564182853872e+03 
       2.020218138391e-02       2.560504629723e+03 
       2.033336534372e-02       2.556720623403e+03 
       2.046462055875e-02       2.552832642471e+03 
       2.059594837854e-02       2.548842478187e+03 
       2.072735018610e-02       2.544751905642e+03 
       2.085882739859e-02       2.540562682342e+03 
       2.099038146811e-02       2.536276554889e+03 
       2.112201388237e-02       2.531895251765e+03 
       2.125372616551e-02       2.527420484111e+03 
       2.138551987891e-02       2.522853950206e+03 
       2.151739662197e-02       2.518197335252e+03 
       2.164935803300e-02       2.513452301166e+03 
       2.178140579007e-02       2.508620502434e+03 
       2.191354161194e-02       2.503703574090e+03 
       2.204576725896e-02       2.498703138012e+03 
       2.217808453407e-02       2.493620800109e+03 
       2.231049528375e-02       2.488458150593e+03 
       2.244300139907e-02       2.483216764506e+03 
       2.257560481677e-02       2.477898202251e+03 
       2.270830752026e-02       2.472504008110e+03 
       2.284111154086e-02       2.467035714259e+03 
       2.297401895885e-02       2.461494835679e+03 
       2.310703190473e-02       2.455882872199e+03 
       2.324015256045e-02       2.450201307635e+03 
       2.337338316062e-02       2.444451612571e+03 
       2.350672599389e-02       2.438635240661e+03 
       2.364018340428e-02       2.432753635028e+03 
       2.377375779254e-02       2.426808219247e+03 
       2.390745161762e-02       2.420800403900e+03 
       2.404126739818e-02       2.414731584450e+03 
       2.417520771405e-02       2.408603139626e+03 
       2.430927520790e-02       2.402416435003e+03 
       2.444347258677e-02       2.396172819783e+03 
       2.457780262388e-02       2.389873632413e+03 
       2.471226816024e-02       2.383520191963e+03 
       2.484687210655e-02       2.377113804357e+03 
       2.498161744501e-02       2.370655759243e+03 
       2.511650723124e-02       2.364147332660e+03 
       2.525154459627e-02       2.357589784802e+03 
       2.538673274858e-02       2.350984361316e+03 
       2.552207497625e-02       2.344332293765e+03 
       2.565757464910e-02       2.337634796468e+03 
       2.579323522096e-02       2.330893074456e+03 
       2.592906023206e-02       2.324108310181e+03 
       2.606505331139e-02       2.317281674529e+03 
       2.620121817925e-02       2.310414325298e+03 
       2.633755864980e-02       2.303507402616e+03 
       2.647407863377e-02       2.296562032942e+03 
       2.661078214125e-02       2.289579327700e+03 
       2.674767328451e-02       2.282560384526e+03 
       2.688475628104e-02       2.275506282278e+03 
       2.702203545660e-02       2.268418088391e+03 
       2.715951524841e-02       2.261296854341e+03 
       2.729720020848e-02       2.254143616624e+03 
       2.743509500706e-02       2.246959394269e+03 
       2.757320443614e-02       2.239745198145e+03 
       2.771153341322e-02       2.232502017645e+03 
       2.785008698506e-02       2.225230831021e+03 
       2.798887033174e-02       2.217932596295e+03 
       2.812788877072e-02       2.210608261627e+03 
       2.826714776114e-02       2.203258757523e+03 
       2.840665290830e-02       2.195885000781e+03 
       2.854640996823e-02       2.188487892653e+03 
       2.868642485257e-02       2.181068319073e+03 
       2.882670363346e-02       2.173627152157e+03 
       2.896725254882e-02       2.166165246396e+03 
       2.910807800770e-02       2.158683443177e+03 
       2.924918659594e-02       2.151182568392e+03 
       2.939058508195e-02       2.143663433129e+03 
       2.953228042286e-02       2.136126831558e+03 
       2.967427977083e-02       2.128573544407e+03 
       2.981659047966e-02       2.121004336754e+03 
       2.995922011165e-02       2.113419958545e+03 
       3.010217644480e-02       2.105821144618e+03 
       3.024546748028e-02       2.098208613829e+03 
       3.038910145022e-02       2.090583069612e+03 
       3.053308682588e-02       2.082945203148e+03 
       3.067743232611e-02       2.075295685200e+03 
       3.082214692626e-02       2.067635174490e+03 
       3.096723986745e-02       2.059964313366e+03 
       3.111272066625e-02       2.052283729009e+03 
       3.125859912480e-02       2.044594032667e+03 
       3.140488534145e-02       2.036895820603e+03 
       3.155158972180e-02       2.029189672989e+03 
       3.169872299037e-02       2.021476154763e+03 
       3.184629620269e-02       2.013755814628e+03 
       3.199432075809e-02       2.006029185829e+03 
       3.214280841301e-02       1.998296785571e+03 
       3.229177129506e-02       1.990559115233e+03 
       3.244122191762e-02       1.982816660181e+03 
       3.259117319534e-02       1.975069889768e+03 
       3.274163846027e-02       1.967319256933e+03 
       3.289263147890e-02       1.959565198952e+03 
       3.304416647001e-02       1.951808136241e+03 
       3.319625812350e-02       1.944048472961e+03 
       3.334892162011e-02       1.936286596951e+03 
       3.350217265230e-02       1.928522878895e+03 
       3.365602744615e-02       1.920757672655e+03 
       3.381050278445e-02       1.912991315288e+03 
       3.396561603111e-02       1.905224126832e+03 
       3.412138515681e-02       1.897456409685e+03 
       3.427782876617e-02       1.889688449373e+03 
       3.443496612637e-02       1.881920513391e+03 
       3.459281719748e-02       1.874152851706e+03 
       3.475140266444e-02       1.866385695967e+03 
       3.491074397096e-02       1.858619259939e+03 
       3.507086335539e-02       1.850853738466e+03 
       3.523178388875e-02       1.843089307789e+03 
       3.539352951499e-02       1.835326125104e+03 
       3.555612509375e-02       1.827564328169e+03 
       3.571959644574e-02       1.819804035280e+03 
       3.588397040096e-02       1.812045344792e+03 
       3.604927484993e-02       1.804288334810e+03 
       3.621553879824e-02       1.796533062387e+03 
       3.638279242456e-02       1.788779563600e+03 
       3.655106714257e-02       1.781027853272e+03 
       3.672039566684e-02       1.773277923765e+03 
       3.689081208328e-02       1.765529744784e+03 
       3.706235192431e-02       1.757783263287e+03 
       3.723505224923e-02       1.750038402573e+03 
       3.740895173027e-02       1.742295061381e+03 
       3.758409074460e-02       1.734553113741e+03 
       3.776051147314e-02       1.726812407882e+03 
       3.793825800641e-02       1.719072765553e+03 
       3.811737645830e-02       1.711333981248e+03 
       3.829791508831e-02       1.703595821170e+03 
       3.847992443316e-02       1.695858022732e+03 
       3.866345744850e-02       1.688120292895e+03 
       3.884856966170e-02       1.680382307342e+03 
       3.903531933691e-02       1.672643709289e+03 
       3.922376765328e-02       1.664904108175e+03 
       3.941397889795e-02       1.657163077899e+03 
       3.960602067502e-02       1.649420156166e+03 
       3.979996413225e-02       1.641674841973e+03 
       3.999588420726e-02       1.633926594130e+03 
       4.019385989522e-02       1.626174829405e+03 
       4.039397454039e-02       1.618418920602e+03 
       4.059631615400e-02       1.610658194099e+03 
       4.080097776137e-02       1.602891926046e+03 
       4.100805778150e-02       1.595119343261e+03 
       4.121766044284e-02       1.587339616082e+03 
       4.142989623943e-02       1.579551857047e+03 
       4.164488243202e-02       1.571755117563e+03 
       4.186274359966e-02       1.563948383377e+03 
       4.208361224788e-02       1.556130571197e+03 
       4.230762948038e-02       1.548300522716e+03 
       4.253494574242e-02       1.540457000396e+03 
       4.276572164490e-02       1.532598681927e+03 
       4.300012888003e-02       1.524724150994e+03 
       4.323835124059e-02       1.516831894147e+03 
       4.348058575712e-02       1.508920290653e+03 
       4.372704396940e-02       1.500987604269e+03 
       4.397795335155e-02       1.493031972282e+03 
       4.423355891284e-02       1.485051397507e+03 
       4.449412500074e-02       1.477043731604e+03 
       4.475993733671e-02       1.469006663260e+03 
       4.503130532118e-02       1.460937701849e+03 
       4.530856465053e-02       1.452834159043e+03 
       4.559208029705e-02       1.444693128133e+03 
       4.588224991243e-02       1.436511459914e+03 
       4.617950772746e-02       1.428285735453e+03 
       4.648432903471e-02       1.420012234651e+03 
       4.679723535930e-02       1.411686898753e+03 
       4.711880044435e-02       1.403305285850e+03 
       4.744965720547e-02       1.394862522937e+03 
       4.779050584200e-02       1.386353243970e+03 
       4.814212333559e-02       1.377771519113e+03 
       4.850537461937e-02       1.369110770703e+03 
       4.888122576821e-02       1.360363669441e+03 
       4.927075964482e-02       1.351522010751e+03 
       4.967519454376e-02       1.342576561938e+03 
       5.009590651188e-02       1.333516876301e+03 
       5.053445619694e-02       1.324331060845e+03 
       5.099262129809e-02       1.315005483372e+03 
       5.147243597341e-02       1.305524405258e+03 
       5.197623891738e-02       1.295869507660e+03 
       5.250673227121e-02       1.286019286016e+03 
       5.306705408624e-02       1.275948253126e+03 
       5.366086773379e-02       1.265625891576e+03 
       5.429247242800e-02       1.255015255595e+03 
       5.496693983604e-02       1.244071087185e+03 
       5.569028241051e-02       1.232737247706e+03 
       5.646965918343e-02       1.220943194353e+03 
       5.731362344255e-02       1.208599097744e+03 
       5.823241224906e-02       1.195589089337e+03 
       5.923826690020e-02       1.181761923218e+03 
