# Matter power spectrum P(k) at redshift z=0
# for k=1.0432e-05 to 1.4771 h/Mpc,
# number of wavenumbers equal to 615
#    1:k (h/Mpc)              2:P (Mpc/h)^3        
       1.043203858107e-05       5.025461841402e+01 
       2.326513117514e-05       1.091734423724e+02 
       3.614307526797e-05       1.671753112338e+02 
       4.910026263784e-05       2.248370318068e+02 
       6.217165020700e-05       2.824936012538e+02 
       7.539306943970e-05       3.404000917372e+02 
       8.880154556962e-05       3.987772040809e+02 
       1.024356308733e-04       4.578300191962e+02 
       1.163357562383e-04       5.177576781123e+02 
       1.305446053092e-04       5.787593015630e+02 
       1.451075154993e-04       6.410381499754e+02 
       1.600729101052e-04       7.048049025576e+02 
       1.754927655864e-04       7.702804870519e+02 
       1.914231177275e-04       8.376986904473e+02 
       2.079246097671e-04       9.073086802269e+02 
       2.250630845536e-04       9.793775093933e+02 
       2.429102211977e-04       1.054192642291e+03 
       2.615442143275e-04       1.132064510437e+03 
       2.810504906632e-04       1.213329081857e+03 
       3.015224528834e-04       1.298350399873e+03 
       3.230622343046e-04       1.387523015068e+03 
       3.457814393444e-04       1.481274195215e+03 
       3.698018337127e-04       1.580065750681e+03 
       3.952559345307e-04       1.684395256585e+03 
       4.222874340956e-04       1.794796388541e+03 
       4.510513722693e-04       1.911838019050e+03 
       4.817139527057e-04       2.036121652931e+03 
       5.144518796923e-04       2.168276723463e+03 
       5.494510791255e-04       2.308953242857e+03 
       5.869046645521e-04       2.458811323783e+03 
       6.270100243598e-04       2.618507190054e+03 
       6.699649467405e-04       2.788675501426e+03 
       7.159627714806e-04       2.969908149180e+03 
       7.651866642641e-04       3.162730135701e+03 
       8.178032445525e-04       3.367573700431e+03 
       8.739559459519e-04       3.584752422673e+03 
       9.337586205446e-04       3.814437504938e+03 
       9.972899807704e-04       4.056638682570e+03 
       1.064589470605e-03       4.311192092578e+03 
       1.135655052861e-03       4.577756900682e+03 
       1.210443197488e-03       4.855821560843e+03 
       1.288871091374e-03       5.144719408270e+03 
       1.370820818204e-03       5.443652099200e+03 
       1.456145035873e-03       5.751718475853e+03 
       1.477104874446e-03       5.826900867068e+03 
       1.544673551056e-03       6.067945969280e+03 
       1.636220170765e-03       6.391321740005e+03 
       1.730589284888e-03       6.720821306764e+03 
       1.827581769141e-03       7.055433199488e+03 
       1.926999955810e-03       7.394178934634e+03 
       2.028651567909e-03       7.736118323410e+03 
       2.132352630499e-03       8.080378855878e+03 
       2.237929453265e-03       8.426163829487e+03 
       2.345219822834e-03       8.772734754270e+03 
       2.454073558912e-03       9.119421382070e+03 
       2.564352583901e-03       9.465619873643e+03 
       2.675930639516e-03       9.810789662448e+03 
       2.788692762341e-03       1.015444951102e+04 
       2.902534607696e-03       1.049617308604e+04 
       3.017361690205e-03       1.083558429062e+04 
       3.133088591343e-03       1.117235257216e+04 
       3.249638169456e-03       1.150618840767e+04 
       3.366940796107e-03       1.183683910441e+04 
       3.484933633804e-03       1.216408496447e+04 
       3.603559963667e-03       1.248773577281e+04 
       3.722768566997e-03       1.280762760689e+04 
       3.842513161488e-03       1.312361996903e+04 
       3.962751890764e-03       1.343559324516e+04 
       4.083446864542e-03       1.374344644923e+04 
       4.204563746020e-03       1.404709521118e+04 
       4.326071382677e-03       1.434646995308e+04 
       4.447941476604e-03       1.464151422954e+04 
       4.570148290550e-03       1.493218323381e+04 
       4.692668386028e-03       1.521844245187e+04 
       4.815480390118e-03       1.550026678812e+04 
       4.938564787828e-03       1.577763883835e+04 
       5.061903737196e-03       1.605054821525e+04 
       5.185480904569e-03       1.631899074028e+04 
       5.309281317783e-03       1.658296641343e+04 
       5.433291235198e-03       1.684248149362e+04 
       5.557498028783e-03       1.709754760706e+04 
       5.681890079641e-03       1.734817900534e+04 
       5.806456684553e-03       1.759439335536e+04 
       5.931187972304e-03       1.783621137725e+04 
       6.056074828658e-03       1.807365652080e+04 
       6.181108829032e-03       1.830675467362e+04 
       6.306282177997e-03       1.853553388496e+04 
       6.431587654842e-03       1.876002416408e+04 
       6.557018564555e-03       1.898025713921e+04 
       6.682568693598e-03       1.919626588985e+04 
       6.808232269985e-03       1.940808473868e+04 
       6.934003927184e-03       1.961574904590e+04 
       7.059878671447e-03       1.981929504483e+04 
       7.185851852196e-03       2.001875968952e+04 
       7.311919135159e-03       2.021418052827e+04 
       7.438076477964e-03       2.040559560583e+04 
       7.564320107944e-03       2.059304337493e+04 
       7.690646501926e-03       2.077656263586e+04 
       7.817052367814e-03       2.095619248421e+04 
       7.943534627775e-03       2.113197226334e+04 
       8.070090402888e-03       2.130394153302e+04 
       8.196716999100e-03       2.147214002161e+04 
       8.323411894375e-03       2.163660759325e+04 
       8.450172726910e-03       2.179738419928e+04 
       8.576997284339e-03       2.195450983009e+04 
       8.703883493807e-03       2.210802446853e+04 
       8.830829412862e-03       2.225796802985e+04 
       8.957833221065e-03       2.240438032022e+04 
       9.084893212279e-03       2.254730098208e+04 
       9.212007787551e-03       2.268676946078e+04 
       9.339175448556e-03       2.282282497114e+04 
       9.466394791550e-03       2.295550648131e+04 
       9.593664501775e-03       2.308485270840e+04 
       9.720983348297e-03       2.321090211706e+04 
       9.848350179225e-03       2.333369293301e+04 
       9.975763917292e-03       2.345326314612e+04 
       1.010322355576e-02       2.356965052895e+04 
       1.023072815461e-02       2.368289263729e+04 
       1.035827683707e-02       2.379302681949e+04 
       1.048586878628e-02       2.390009020601e+04 
       1.061350324232e-02       2.400411970484e+04 
       1.074117949938e-02       2.410515197637e+04 
       1.086889690313e-02       2.420322341083e+04 
       1.099665484833e-02       2.429837010053e+04 
       1.112445277652e-02       2.439062781040e+04 
       1.125229017396e-02       2.448003195694e+04 
       1.138016656969e-02       2.456661758980e+04 
       1.150808153366e-02       2.465041938858e+04 
       1.163603467509e-02       2.473147166701e+04 
       1.176402564087e-02       2.480980839326e+04 
       1.189205411414e-02       2.488546321463e+04 
       1.202011981286e-02       2.495846950019e+04 
       1.214822248862e-02       2.502886036837e+04 
       1.227636192541e-02       2.509666872694e+04 
       1.240453793856e-02       2.516192730189e+04 
       1.253275037370e-02       2.522466865641e+04 
       1.266099910585e-02       2.528492520854e+04 
       1.278928403852e-02       2.534272923657e+04 
       1.291760510290e-02       2.539811287222e+04 
       1.304596225713e-02       2.545110808749e+04 
       1.317435548559e-02       2.550174659074e+04 
       1.330278479826e-02       2.555005950786e+04 
       1.343125023014e-02       2.559607692136e+04 
       1.355975184070e-02       2.563982783130e+04 
       1.368828971338e-02       2.568134098207e+04 
       1.381686395516e-02       2.572064496696e+04 
       1.394547469608e-02       2.575777012642e+04 
       1.407412208895e-02       2.579274530001e+04 
       1.420280630894e-02       2.582559968074e+04 
       1.433152755329e-02       2.585636204069e+04 
       1.446028604105e-02       2.588506080381e+04 
       1.458908201282e-02       2.591172408345e+04 
       1.471791573057e-02       2.593637970788e+04 
       1.477104874446e-02       2.594596783931e+04 
       1.484678747739e-02       2.595905523658e+04 
       1.497569755739e-02       2.597977797032e+04 
       1.510464629555e-02       2.599857495716e+04 
       1.523363403759e-02       2.601547299688e+04 
       1.536266114994e-02       2.603049864480e+04 
       1.549172801963e-02       2.604367821303e+04 
       1.562083505426e-02       2.605503777481e+04 
       1.574998268202e-02       2.606460316502e+04 
       1.587917135167e-02       2.607239998372e+04 
       1.600840153254e-02       2.607845359749e+04 
       1.613767371464e-02       2.608278914157e+04 
       1.626698840869e-02       2.608543152162e+04 
       1.639634614619e-02       2.608640541603e+04 
       1.652574747955e-02       2.608573527760e+04 
       1.665519298221e-02       2.608344533564e+04 
       1.678468324875e-02       2.607955959767e+04 
       1.691421889511e-02       2.607410185138e+04 
       1.704380055870e-02       2.606709566646e+04 
       1.717342889862e-02       2.605856439643e+04 
       1.730310459587e-02       2.604853118040e+04 
       1.743282835358e-02       2.603701894505e+04 
       1.756260089725e-02       2.602405040619e+04 
       1.769242297500e-02       2.600964806997e+04 
       1.782229535785e-02       2.599383423514e+04 
       1.795221884003e-02       2.597663099468e+04 
       1.808219423926e-02       2.595806023632e+04 
       1.821222239710e-02       2.593814364568e+04 
       1.834230417929e-02       2.591690270558e+04 
       1.847244047609e-02       2.589435869967e+04 
       1.860263220268e-02       2.587053271223e+04 
       1.873288029955e-02       2.584544563015e+04 
       1.886318573289e-02       2.581911814441e+04 
       1.899354949503e-02       2.579157075095e+04 
       1.912397260491e-02       2.576282375232e+04 
       1.925445610849e-02       2.573289725827e+04 
       1.938500107928e-02       2.570181118810e+04 
       1.951560861882e-02       2.566958527028e+04 
       1.964627985718e-02       2.563623904481e+04 
       1.977701595353e-02       2.560179186400e+04 
       1.990781809667e-02       2.556626289306e+04 
       2.003868750563e-02       2.552967111221e+04 
       2.016962543022e-02       2.549203531649e+04 
       2.030063315170e-02       2.545337411775e+04 
       2.043171198338e-02       2.541370594462e+04 
       2.056286327130e-02       2.537304904430e+04 
       2.069408839487e-02       2.533142148331e+04 
       2.082538876763e-02       2.528884114800e+04 
       2.095676583792e-02       2.524532574627e+04 
       2.108822108966e-02       2.520089280690e+04 
       2.121975604311e-02       2.515555968198e+04 
       2.135137225567e-02       2.510934354647e+04 
       2.148307132269e-02       2.506226140010e+04 
       2.161485487835e-02       2.501433006752e+04 
       2.174672459649e-02       2.496556619856e+04 
       2.187868219153e-02       2.491598626968e+04 
       2.201072941941e-02       2.486560658452e+04 
       2.214286807856e-02       2.481444327467e+04 
       2.227510001084e-02       2.476251229996e+04 
       2.240742710260e-02       2.470982944899e+04 
       2.253985128574e-02       2.465641034062e+04 
       2.267237453875e-02       2.460227042398e+04 
       2.280499888789e-02       2.454742497865e+04 
       2.293772640829e-02       2.449188911552e+04 
       2.307055922515e-02       2.443567777829e+04 
       2.320349951500e-02       2.437880574325e+04 
       2.333654950695e-02       2.432128761914e+04 
       2.346971148395e-02       2.426313784837e+04 
       2.360298778424e-02       2.420437070764e+04 
       2.373638080261e-02       2.414500030692e+04 
       2.386989299197e-02       2.408504059733e+04 
       2.400352686472e-02       2.402450535688e+04 
       2.413728499432e-02       2.396340820487e+04 
       2.427117001691e-02       2.390176259672e+04 
       2.440518463286e-02       2.383958182402e+04 
       2.453933160849e-02       2.377687901558e+04 
       2.467361377782e-02       2.371366713756e+04 
       2.480803404435e-02       2.364995899455e+04 
       2.494259538288e-02       2.358576723008e+04 
       2.507730084147e-02       2.352110432739e+04 
       2.521215354341e-02       2.345598260716e+04 
       2.534715668922e-02       2.339041423075e+04 
       2.548231355881e-02       2.332441120955e+04 
       2.561762751365e-02       2.325798536385e+04 
       2.575310199898e-02       2.319114839323e+04 
       2.588874054624e-02       2.312391180258e+04 
       2.602454677537e-02       2.305628698050e+04 
       2.616052439741e-02       2.298828512271e+04 
       2.629667721700e-02       2.291991727698e+04 
       2.643300913512e-02       2.285119433454e+04 
       2.656952415181e-02       2.278212703057e+04 
       2.670622636905e-02       2.271272593941e+04 
       2.684311999376e-02       2.264300148110e+04 
       2.698020934083e-02       2.257296391791e+04 
       2.711749883634e-02       2.250262335630e+04 
       2.725499302082e-02       2.243198974685e+04 
       2.739269655274e-02       2.236107288348e+04 
       2.753061421199e-02       2.228988240462e+04 
       2.766875090360e-02       2.221842779371e+04 
       2.780711166157e-02       2.214671837838e+04 
       2.794570165279e-02       2.207476333133e+04 
       2.808452618118e-02       2.200257167038e+04 
       2.822359069199e-02       2.193015225849e+04 
       2.836290077616e-02       2.185751380424e+04 
       2.850246217500e-02       2.178466486165e+04 
       2.864228078496e-02       2.171161382973e+04 
       2.878236266258e-02       2.163836895468e+04 
       2.892271402969e-02       2.156493832750e+04 
       2.906334127877e-02       2.149132988474e+04 
       2.920425097860e-02       2.141755141040e+04 
       2.934544988001e-02       2.134361053334e+04 
       2.948694492203e-02       2.126951472849e+04 
       2.962874323814e-02       2.119527131782e+04 
       2.977085216289e-02       2.112088746791e+04 
       2.991327923874e-02       2.104637019262e+04 
       3.005603222321e-02       2.097172635096e+04 
       3.019911909636e-02       2.089696264802e+04 
       3.034254806852e-02       2.082208563495e+04 
       3.048632758846e-02       2.074710170751e+04 
       3.063046635181e-02       2.067201710792e+04 
       3.077497330995e-02       2.059683792292e+04 
       3.091985767921e-02       2.052157008420e+04 
       3.106512895057e-02       2.044621936891e+04 
       3.121079689973e-02       2.037079139711e+04 
       3.135687159770e-02       2.029529163426e+04 
       3.150336342181e-02       2.021972538842e+04 
       3.165028306733e-02       2.014409781120e+04 
       3.179764155953e-02       2.006841389696e+04 
       3.194545026642e-02       1.999267848178e+04 
       3.209372091205e-02       1.991689624379e+04 
       3.224246559042e-02       1.984107170102e+04 
       3.239169678015e-02       1.976520921280e+04 
       3.254142735985e-02       1.968931297666e+04 
       3.269167062420e-02       1.961338702964e+04 
       3.284244030096e-02       1.953743524592e+04 
       3.299375056871e-02       1.946146133541e+04 
       3.314561607564e-02       1.938546884556e+04 
       3.329805195921e-02       1.930946115546e+04 
       3.345107386692e-02       1.923344147928e+04 
       3.360469797814e-02       1.915741286248e+04 
       3.375894102713e-02       1.908137817989e+04 
       3.391382032731e-02       1.900534013576e+04 
       3.406935379688e-02       1.892930126098e+04 
       3.422555998583e-02       1.885326391171e+04 
       3.438245810449e-02       1.877723026647e+04 
       3.454006805369e-02       1.870120232631e+04 
       3.469841045668e-02       1.862518190923e+04 
       3.485750669285e-02       1.854917065113e+04 
       3.501737893345e-02       1.847317000047e+04 
       3.517805017950e-02       1.839718121698e+04 
       3.533954430188e-02       1.832120536918e+04 
       3.550188608390e-02       1.824524332834e+04 
       3.566510126651e-02       1.816929576912e+04 
       3.582921659630e-02       1.809336316241e+04 
       3.599425987654e-02       1.801744577332e+04 
       3.616026002147e-02       1.794154365686e+04 
       3.632724711413e-02       1.786565665039e+04 
       3.649525246790e-02       1.778978437451e+04 
       3.666430869223e-02       1.771392622249e+04 
       3.683444976272e-02       1.763808135726e+04 
       3.700571109594e-02       1.756224870610e+04 
       3.717812962950e-02       1.748642695098e+04 
       3.735174390764e-02       1.741061452438e+04 
       3.752659417290e-02       1.733480960257e+04 
       3.770272246444e-02       1.725901009413e+04 
       3.788017272340e-02       1.718321363401e+04 
       3.805899090614e-02       1.710741757496e+04 
       3.823922510595e-02       1.703161897464e+04 
       3.842092568395e-02       1.695581458730e+04 
       3.860414541020e-02       1.688000085164e+04 
       3.878893961572e-02       1.680417387850e+04 
       3.897536635672e-02       1.672832943622e+04 
       3.916348659197e-02       1.665246293901e+04 
       3.935336437481e-02       1.657656942587e+04 
       3.954506706107e-02       1.650064355014e+04 
       3.973866553460e-02       1.642467955659e+04 
       3.993423445217e-02       1.634867126347e+04 
       4.013185250983e-02       1.627261204040e+04 
       4.033160273282e-02       1.619649478384e+04 
       4.053357279179e-02       1.612031189248e+04 
       4.073785534803e-02       1.604405523932e+04 
       4.094454843094e-02       1.596771614119e+04 
       4.115375585153e-02       1.589128532434e+04 
       4.136558765592e-02       1.581475288852e+04 
       4.158016062364e-02       1.573810826878e+04 
       4.179759881597e-02       1.566134018915e+04 
       4.201803418058e-02       1.558443661444e+04 
       4.224160721918e-02       1.550738469851e+04 
       4.246846772639e-02       1.543017072501e+04 
       4.269877560878e-02       1.535278004252e+04 
       4.293270179479e-02       1.527519699108e+04 
       4.317042924752e-02       1.519740482348e+04 
       4.341215409459e-02       1.511938561588e+04 
       4.365808689130e-02       1.504112016792e+04 
       4.390845403620e-02       1.496258789203e+04 
       4.416349936107e-02       1.488376668621e+04 
       4.442348592154e-02       1.480463279497e+04 
       4.468869801859e-02       1.472516064953e+04 
       4.495944348705e-02       1.464532268745e+04 
       4.523605629354e-02       1.456508914746e+04 
       4.551889949431e-02       1.448442783515e+04 
       4.580836861308e-02       1.440330385615e+04 
       4.610489551056e-02       1.432167930632e+04 
       4.640895283201e-02       1.423951291686e+04 
       4.672105913642e-02       1.415675964143e+04 
       4.704178483298e-02       1.407337017426e+04 
       4.737175907736e-02       1.398929038706e+04 
       4.771167781361e-02       1.390446066453e+04 
       4.806231318978e-02       1.381881511786e+04 
       4.842452462729e-02       1.373228064816e+04 
       4.879927189076e-02       1.364477582115e+04 
       4.918763058790e-02       1.355620951224e+04 
       4.959081063548e-02       1.346647925468e+04 
       5.001017836152e-02       1.337546921967e+04 
       5.044728308568e-02       1.328304771995e+04 
       5.090388923831e-02       1.318906409938e+04 
       5.138201535686e-02       1.309334482783e+04 
       5.188398165188e-02       1.299568854890e+04 
       5.241246827920e-02       1.289585973334e+04 
       5.297058700660e-02       1.279358048006e+04 
       5.356196962975e-02       1.268851979684e+04 
       5.419087726124e-02       1.258027945675e+04 
       5.486233542372e-02       1.246837514113e+04 
       5.558230055195e-02       1.235221106360e+04 
       5.635786365311e-02       1.223104555733e+04 
       5.719749565373e-02       1.210394415983e+04 
       5.811133470958e-02       1.196971544736e+04 
       5.911150531561e-02       1.182682391416e+04 
