# Matter power spectrum P(k) at redshift z=0
# for k=1.0432e-05 to 1.4771 h/Mpc,
# number of wavenumbers equal to 615
#    1:k (h/Mpc)              2:P (Mpc/h)^3        
       1.043203858107e-05       5.025461794787e+01 
       2.328394053593e-05       1.092588133453e+02 
       3.618085057956e-05       1.673442956790e+02 
       4.915731229570e-05       2.250896603918e+02 
       6.224843820094e-05       2.828309626713e+02 
       7.549022142798e-05       3.408241471419e+02 
       8.891985733399e-05       3.992907309147e+02 
       1.025760792937e-04       4.584366070626e+02 
       1.164995129695e-04       5.184617537005e+02 
       1.307330533843e-04       5.795661741705e+02 
       1.453222691301e-04       6.419540742966e+02 
       1.603158379875e-04       7.058371575663e+02 
       1.757660180601e-04       7.714374708433e+02 
       1.917291581672e-04       8.389900314237e+02 
       2.082662506016e-04       9.087453652478e+02 
       2.254435283090e-04       9.809720295289e+02 
       2.433331069287e-04       1.055959156633e+03 
       2.620136697279e-04       1.134019027994e+03 
       2.815711900079e-04       1.215489660834e+03 
       3.020996807309e-04       1.300737362502e+03 
       3.237019545486e-04       1.390159174541e+03 
       3.464903687063e-04       1.484185088999e+03 
       3.705875180809e-04       1.583279871465e+03 
       3.961268256325e-04       1.687944268224e+03 
       4.232529628089e-04       1.798715309508e+03 
       4.521220134365e-04       1.916165350238e+03 
       4.829012746432e-04       2.040899420405e+03 
       5.157685698202e-04       2.173550400567e+03 
       5.509109354813e-04       2.314771511004e+03 
       5.885225417839e-04       2.465225628843e+03 
       6.288017225945e-04       2.625571053557e+03 
       6.719470331201e-04       2.796443555125e+03 
       7.181523277310e-04       2.978434879875e+03 
       7.676009597983e-04       3.172068355607e+03 
       8.204593432226e-04       3.377772795628e+03 
       8.768702648160e-04       3.595856474329e+03 
       9.369464692513e-04       3.826483417827e+03 
       1.000765118056e-03       4.069654483544e+03 
       1.068363717551e-03       4.325195568569e+03 
       1.139737999336e-03       4.592754725043e+03 
       1.214842028438e-03       4.871809007808e+03 
       1.293590545006e-03       5.161680685235e+03 
       1.375863271815e-03       5.461561249631e+03 
       1.461510700454e-03       5.770540739496e+03 
       1.477104874446e-03       5.826447663111e+03 
       1.550360745879e-03       6.087639446422e+03 
       1.642225644979e-03       6.411839199443e+03 
       1.736908554575e-03       6.742111998183e+03 
       1.834209443642e-03       7.077444566501e+03 
       1.933930034512e-03       7.416858159985e+03 
       2.035877696326e-03       7.759412249010e+03 
       2.139868311060e-03       8.104239242656e+03 
       2.245728211231e-03       8.450544154362e+03 
       2.353295331039e-03       8.797592200002e+03 
       2.462419726797e-03       9.144717304181e+03 
       2.572963616953e-03       9.491320117333e+03 
       2.684801075112e-03       9.836864761242e+03 
       2.797817487421e-03       1.018087478940e+04 
       2.911908862923e-03       1.052292868244e+04 
       3.026981064422e-03       1.086265511747e+04 
       3.142949009385e-03       1.119972823437e+04 
       3.259735875652e-03       1.153386308586e+04 
       3.377272335253e-03       1.186481144491e+04 
       3.495495830894e-03       1.219235793796e+04 
       3.614349903319e-03       1.251631653369e+04 
       3.733783573209e-03       1.283652734306e+04 
       3.853750778159e-03       1.315285375275e+04 
       3.974209863231e-03       1.346517988052e+04 
       4.095123122301e-03       1.377340832124e+04 
       4.216456386684e-03       1.407745812146e+04 
       4.338178657191e-03       1.437726296234e+04 
       4.460261775683e-03       1.467276948340e+04 
       4.582680132289e-03       1.496393578804e+04 
       4.705410404617e-03       1.525073011607e+04 
       4.828431325585e-03       1.553312993720e+04 
       4.951723476731e-03       1.581112020778e+04 
       5.075269104183e-03       1.608469275576e+04 
       5.199051954738e-03       1.635384545062e+04 
       5.323057129758e-03       1.661857990765e+04 
       5.447270954867e-03       1.687890466442e+04 
       5.571680863622e-03       1.713483266792e+04 
       5.696275293575e-03       1.738637961702e+04 
       5.821043593302e-03       1.763356449030e+04 
       5.945975939161e-03       1.787640918202e+04 
       6.071063260659e-03       1.811493818238e+04 
       6.196297173482e-03       1.834917828306e+04 
       6.321669919309e-03       1.857915830944e+04 
       6.447174311672e-03       1.880490890033e+04 
       6.572803687183e-03       1.902646217770e+04 
       6.698551861550e-03       1.924385158223e+04 
       6.824413089864e-03       1.945711166101e+04 
       6.950382030691e-03       1.966627786868e+04 
       7.076453713572e-03       1.987138640678e+04 
       7.202623509563e-03       2.007247407870e+04 
       7.328887104517e-03       2.026957816979e+04 
       7.455240474799e-03       2.046273635692e+04 
       7.581679865208e-03       2.065198662652e+04 
       7.708201768875e-03       2.083736722102e+04 
       7.834802908933e-03       2.101891658875e+04 
       7.961480221797e-03       2.119667334305e+04 
       8.088230841888e-03       2.137067622969e+04 
       8.215052087661e-03       2.154096408205e+04 
       8.341941448816e-03       2.170757578877e+04 
       8.468896574583e-03       2.187055024370e+04 
       8.595915262971e-03       2.202992630099e+04 
       8.722995450896e-03       2.218574272726e+04 
       8.850135205119e-03       2.233803814709e+04 
       8.977332713896e-03       2.248685100333e+04 
       9.104586279304e-03       2.263221950738e+04 
       9.231894310165e-03       2.277418161354e+04 
       9.359255315515e-03       2.291277498904e+04 
       9.486667898590e-03       2.304803700842e+04 
       9.614130751257e-03       2.318000475163e+04 
       9.741642648879e-03       2.330871501117e+04 
       9.869202445558e-03       2.343420430643e+04 
       9.996809069733e-03       2.355650889300e+04 
       1.012446152011e-02       2.367566478008e+04 
       1.025215886188e-02       2.379170773513e+04 
       1.037990022321e-02       2.390467329018e+04 
       1.050768479203e-02       2.401459673587e+04 
       1.063551181296e-02       2.412151311269e+04 
       1.076338058457e-02       2.422545719002e+04 
       1.089129045674e-02       2.432646344330e+04 
       1.101924082826e-02       2.442456602990e+04 
       1.114723114457e-02       2.451979876270e+04 
       1.127526089570e-02       2.461219509295e+04 
       1.140332961429e-02       2.470178809809e+04 
       1.153143687380e-02       2.478861048244e+04 
       1.165958228687e-02       2.487269458772e+04 
       1.178776550366e-02       2.495407241702e+04 
       1.191598621050e-02       2.503277566470e+04 
       1.204424412848e-02       2.510883575991e+04 
       1.217253901218e-02       2.518228389695e+04 
       1.230087064855e-02       2.525315107495e+04 
       1.242923885579e-02       2.532146812826e+04 
       1.255764348234e-02       2.538726574262e+04 
       1.268608440596e-02       2.545057447433e+04 
       1.281456153286e-02       2.551142475959e+04 
       1.294307479685e-02       2.556984689960e+04 
       1.307162415868e-02       2.562587105129e+04 
       1.320020960526e-02       2.567952708283e+04 
       1.332883114910e-02       2.573084420880e+04 
       1.345748882765e-02       2.577985054803e+04 
       1.358618270283e-02       2.582657325685e+04 
       1.371491286050e-02       2.587103952172e+04 
       1.384367941001e-02       2.591327623712e+04 
       1.397248248378e-02       2.595331221475e+04 
       1.410132223695e-02       2.599117476159e+04 
       1.423019884702e-02       2.602689140799e+04 
       1.435911251354e-02       2.606048933506e+04 
       1.448806345788e-02       2.609199541521e+04 
       1.461705192292e-02       2.612143624809e+04 
       1.474607817291e-02       2.614883818524e+04 
       1.477104874446e-02       2.615390715600e+04 
       1.487514249322e-02       2.617422734548e+04 
       1.500424519025e-02       2.619762962437e+04 
       1.513338659125e-02       2.621907070066e+04 
       1.526256704424e-02       2.623857604151e+04 
       1.539178691790e-02       2.625617090420e+04 
       1.552104660158e-02       2.627188034154e+04 
       1.565034650517e-02       2.628572920295e+04 
       1.577968705917e-02       2.629774213759e+04 
       1.590906871466e-02       2.630794359683e+04 
       1.603849194331e-02       2.631635783617e+04 
       1.616795723748e-02       2.632300891761e+04 
       1.629746511025e-02       2.632792071173e+04 
       1.642701609552e-02       2.633111689975e+04 
       1.655661074810e-02       2.633262097544e+04 
       1.668624964385e-02       2.633245624705e+04 
       1.681593337983e-02       2.633064583908e+04 
       1.694566257444e-02       2.632721269433e+04 
       1.707543786761e-02       2.632217957553e+04 
       1.720525992096e-02       2.631556906711e+04 
       1.733512941808e-02       2.630740357694e+04 
       1.746504706469e-02       2.629770533750e+04 
       1.759501358892e-02       2.628649640856e+04 
       1.772502974156e-02       2.627379867579e+04 
       1.785509629635e-02       2.625963385612e+04 
       1.798521405026e-02       2.624402349551e+04 
       1.811538382379e-02       2.622698897235e+04 
       1.824560646135e-02       2.620855149744e+04 
       1.837588283154e-02       2.618873211578e+04 
       1.850621382754e-02       2.616755170750e+04 
       1.863660036751e-02       2.614503098795e+04 
       1.876704339494e-02       2.612119051069e+04 
       1.889754387911e-02       2.609605066592e+04 
       1.902810281546e-02       2.606963168339e+04 
       1.915872122611e-02       2.604195363206e+04 
       1.928940016025e-02       2.601303642069e+04 
       1.942014069469e-02       2.598289980023e+04 
       1.955094393431e-02       2.595156336233e+04 
       1.968181101261e-02       2.591904654146e+04 
       1.981274309224e-02       2.588536861473e+04 
       1.994374136554e-02       2.585054870250e+04 
       2.007480705515e-02       2.581460576993e+04 
       2.020594141459e-02       2.577755862604e+04 
       2.033714572885e-02       2.573942592503e+04 
       2.046842131509e-02       2.570022616667e+04 
       2.059976952326e-02       2.565997769622e+04 
       2.073119173676e-02       2.561869870500e+04 
       2.086268937320e-02       2.557640723083e+04 
       2.099426388509e-02       2.553312115880e+04 
       2.112591676058e-02       2.548885822047e+04 
       2.125764952427e-02       2.544363599501e+04 
       2.138946373799e-02       2.539747190862e+04 
       2.152136100162e-02       2.535038323571e+04 
       2.165334295393e-02       2.530238709866e+04 
       2.178541127349e-02       2.525350046772e+04 
       2.191756767956e-02       2.520374016118e+04 
       2.204981393300e-02       2.515312284565e+04 
       2.218215183727e-02       2.510166503645e+04 
       2.231458323938e-02       2.504938309734e+04 
       2.244711003095e-02       2.499629324053e+04 
       2.257973414927e-02       2.494241152674e+04 
       2.271245757833e-02       2.488775386590e+04 
       2.284528235003e-02       2.483233601635e+04 
       2.297821054525e-02       2.477617358478e+04 
       2.311124429510e-02       2.471928202708e+04 
       2.324438578214e-02       2.466167664731e+04 
       2.337763724164e-02       2.460337259904e+04 
       2.351100096289e-02       2.454438488414e+04 
       2.364447929059e-02       2.448472835261e+04 
       2.377807462616e-02       2.442441770341e+04 
       2.391178942929e-02       2.436346748579e+04 
       2.404562621931e-02       2.430189209339e+04 
       2.417958757682e-02       2.423970577158e+04 
       2.431367614522e-02       2.417692261337e+04 
       2.444789463236e-02       2.411355656073e+04 
       2.458224581221e-02       2.404962140271e+04 
       2.471673252663e-02       2.398513077635e+04 
       2.485135768712e-02       2.392009816597e+04 
       2.498612427675e-02       2.385453690739e+04 
       2.512103535201e-02       2.378846018123e+04 
       2.525609404482e-02       2.372188101610e+04 
       2.539130356460e-02       2.365481228932e+04 
       2.552666720034e-02       2.358726672579e+04 
       2.566218832284e-02       2.351925689722e+04 
       2.579787038694e-02       2.345079522296e+04 
       2.593371693386e-02       2.338189397011e+04 
       2.606973159365e-02       2.331256525235e+04 
       2.620591808767e-02       2.324282103196e+04 
       2.634228023119e-02       2.317267311555e+04 
       2.647882193607e-02       2.310213315867e+04 
       2.661554721354e-02       2.303121266365e+04 
       2.675246017708e-02       2.295992297913e+04 
       2.688956504539e-02       2.288827530036e+04 
       2.702686614549e-02       2.281628066963e+04 
       2.716436791589e-02       2.274394997499e+04 
       2.730207490992e-02       2.267129395099e+04 
       2.743999179919e-02       2.259832317921e+04 
       2.757812337710e-02       2.252504808650e+04 
       2.771647456257e-02       2.245147894585e+04 
       2.785505040386e-02       2.237762587654e+04 
       2.799385608255e-02       2.230349884378e+04 
       2.813289691767e-02       2.222910765804e+04 
       2.827217836998e-02       2.215446197580e+04 
       2.841170604642e-02       2.207957129867e+04 
       2.855148570475e-02       2.200444497450e+04 
       2.869152325832e-02       2.192909219518e+04 
       2.883182478111e-02       2.185352199831e+04 
       2.897239651288e-02       2.177774326742e+04 
       2.911324486461e-02       2.170176472920e+04 
       2.925437642409e-02       2.162559495590e+04 
       2.939579796178e-02       2.154924236518e+04 
       2.953751643689e-02       2.147271521749e+04 
       2.967953900375e-02       2.139602161855e+04 
       2.982187301837e-02       2.131916951788e+04 
       2.996452604535e-02       2.124216670893e+04 
       3.010750586505e-02       2.116502082863e+04 
       3.025082048109e-02       2.108773935705e+04 
       3.039447812812e-02       2.101032961835e+04 
       3.053848727998e-02       2.093279877854e+04 
       3.068285665822e-02       2.085515384672e+04 
       3.082759524096e-02       2.077740167467e+04 
       3.097271227218e-02       2.069954895535e+04 
       3.111821727140e-02       2.062160222418e+04 
       3.126412004382e-02       2.054356785719e+04 
       3.141043069095e-02       2.046545207186e+04 
       3.155715962167e-02       2.038726092581e+04 
       3.170431756386e-02       2.030900031631e+04 
       3.185191557655e-02       2.023067598111e+04 
       3.199996506269e-02       2.015229349569e+04 
       3.214847778248e-02       2.007385827488e+04 
       3.229746586738e-02       1.999537557043e+04 
       3.244694183482e-02       1.991685047192e+04 
       3.259691860359e-02       1.983828790487e+04 
       3.274740951008e-02       1.975969262969e+04 
       3.289842832524e-02       1.968106924337e+04 
       3.304998927251e-02       1.960242217455e+04 
       3.320210704659e-02       1.952375568615e+04 
       3.335479683323e-02       1.944507387287e+04 
       3.350807433010e-02       1.936638065912e+04 
       3.366195576865e-02       1.928767979981e+04 
       3.381645793731e-02       1.920897487803e+04 
       3.397159820580e-02       1.913026930323e+04 
       3.412739455087e-02       1.905156631069e+04 
       3.428386558345e-02       1.897286895977e+04 
       3.444103057731e-02       1.889418013114e+04 
       3.459890949935e-02       1.881550252667e+04 
       3.475752304165e-02       1.873683866661e+04 
       3.491689265534e-02       1.865819088641e+04 
       3.507704058654e-02       1.857956133770e+04 
       3.523798991434e-02       1.850095198135e+04 
       3.539976459115e-02       1.842236458990e+04 
       3.556238948543e-02       1.834380074019e+04 
       3.572589042711e-02       1.826526181432e+04 
       3.589029425582e-02       1.818674899352e+04 
       3.605562887219e-02       1.810826325742e+04 
       3.622192329233e-02       1.802980537735e+04 
       3.638920770601e-02       1.795137591469e+04 
       3.655751353845e-02       1.787297521696e+04 
       3.672687351641e-02       1.779460341336e+04 
       3.689732173854e-02       1.771626040701e+04 
       3.706889375065e-02       1.763794587325e+04 
       3.724162662612e-02       1.755965925501e+04 
       3.741555905194e-02       1.748139975164e+04 
       3.759073142088e-02       1.740316631812e+04 
       3.776718593023e-02       1.732495765547e+04 
       3.794496668777e-02       1.724677220444e+04 
       3.812411982561e-02       1.716860813717e+04 
       3.830469362248e-02       1.709046334728e+04 
       3.848673863539e-02       1.701233544554e+04 
       3.867030784142e-02       1.693422174479e+04 
       3.885545679069e-02       1.685611925104e+04 
       3.904224377135e-02       1.677802465400e+04 
       3.923072998804e-02       1.669993431430e+04 
       3.942097975494e-02       1.662184424350e+04 
       3.961306070485e-02       1.654375010132e+04 
       3.980704401605e-02       1.646564717204e+04 
       4.000300465862e-02       1.638753034873e+04 
       4.020102166233e-02       1.630939411552e+04 
       4.040117840833e-02       1.623123253066e+04 
       4.060356294723e-02       1.615303919824e+04 
       4.080826834644e-02       1.607480724929e+04 
       4.101539307002e-02       1.599652931548e+04 
       4.122504139470e-02       1.591819750126e+04 
       4.143732386632e-02       1.583980334898e+04 
       4.165235780128e-02       1.576133780951e+04 
       4.187026783853e-02       1.568279120468e+04 
       4.209118654810e-02       1.560415318449e+04 
       4.231525510335e-02       1.552541268173e+04 
       4.254262402476e-02       1.544655786469e+04 
       4.277345400474e-02       1.536757608052e+04 
       4.300791682384e-02       1.528845379496e+04 
       4.324619637083e-02       1.520917652389e+04 
       4.348848978069e-02       1.512972875667e+04 
       4.373500870712e-02       1.505009387473e+04 
       4.398598074868e-02       1.497025405463e+04 
       4.424165105088e-02       1.489019016205e+04 
       4.450228411068e-02       1.480988163270e+04 
       4.476816581393e-02       1.472930633663e+04 
       4.503960574223e-02       1.464844042328e+04 
       4.531693979216e-02       1.456725814836e+04 
       4.560053315776e-02       1.448573167319e+04 
       4.589078373707e-02       1.440383083378e+04 
       4.618812603519e-02       1.432152287720e+04 
       4.649303565120e-02       1.423877215345e+04 
       4.680603445360e-02       1.415553976102e+04 
       4.712769657156e-02       1.407178312558e+04 
       4.745865535604e-02       1.398745551071e+04 
       4.779961149920e-02       1.390250543422e+04 
       4.815134254248e-02       1.381687597774e+04 
       4.851471405743e-02       1.373050395411e+04 
       4.889069284990e-02       1.364331890589e+04 
       4.928036262310e-02       1.355524188933e+04 
       4.968494264231e-02       1.346618397605e+04 
       5.010581008058e-02       1.337604441524e+04 
       5.054452689852e-02       1.328470832735e+04 
       5.100287233326e-02       1.319204381993e+04 
       5.148288235365e-02       1.309789831064e+04 
       5.198689779718e-02       1.300209382515e+04 
       5.251762335433e-02       1.290442088637e+04 
       5.307820012452e-02       1.280463052894e+04 
       5.367229514124e-02       1.270242370575e+04 
       5.430421203820e-02       1.259743711763e+04 
       5.497902783546e-02       1.248922402330e+04 
       5.570276148409e-02       1.237722800763e+04 
       5.648257990725e-02       1.226074681172e+04 
       5.732704594558e-02       1.213888210797e+04 
       5.824640812853e-02       1.201046959269e+04 
       5.925292128882e-02       1.187398208026e+04 
