# dimensionless total lensed [l(l+1)/2pi] C_l's
# for l=2 to 2600, i.e. number of multipoles equal to 2599
#
# -> if you prefer output in CAMB/HealPix/LensPix units/order, set 'format' to 'camb' in input file
# -> if you don't want to see such a header, set 'headers' to 'no' in input file
# -> for CMB lensing (phi), these are C_l^phi-phi for the lensing potential.
#    Remember the conversion factors:
#    C_l^dd (deflection) = l(l+1) C_l^phi-phi
#    C_l^gg (shear/convergence) = 1/4 (l(l+1))^2 C_l^phi-phi
#
# 1:l     2:TT                     3:EE                     4:TE                     5:BB                     6:phiphi                 7:TPhi                   8:Ephi               
    2       1.448077838668e-10       4.692674188358e-15       3.802753107588e-13       2.582114764696e-19       8.664670924671e-09       4.757434955188e-10      -2.000000850473e-12 
    3       1.369675060800e-10       6.373254717038e-15       4.370255535704e-13       5.164821899042e-19       5.322901862003e-09       3.380151665993e-10      -1.567745245762e-12 
    4       1.294969746222e-10       5.867355601038e-15       4.170871916749e-13       8.609362136383e-19       3.704961401106e-09       2.563629024640e-10      -1.075675205321e-12 
    5       1.238472423230e-10       4.179310845642e-15       3.620415293455e-13       1.291655014921e-18       2.768319981555e-09       2.027055277109e-10      -6.439374052969e-13 
    6       1.199281740242e-10       2.468850561617e-15       2.966240289046e-13       1.808742337271e-18       2.164248126240e-09       1.650295037717e-10      -3.091660540151e-13 
    7       1.173570521410e-10       1.343253189427e-15       2.357903168961e-13       2.412325168693e-18       1.747241511949e-09       1.373569790316e-10      -7.927133981132e-14 
    8       1.158259215989e-10       8.172679059516e-16       1.867136631715e-13       3.102554621006e-18       1.444634586473e-09       1.163561136577e-10       5.442824866654e-14 
    9       1.150735635351e-10       6.316697592106e-16       1.518090101745e-13       3.879606593126e-18       1.216578790579e-09       1.000145524519e-10       1.102831639588e-13 
   10       1.148787906278e-10       5.498529713740e-16       1.306014442597e-13       4.743682090539e-18       1.039762186662e-09       8.703631118886e-11       1.112519503237e-13 
   11       1.151499761487e-10       4.728646002050e-16       1.208369923336e-13       5.695007080178e-18       8.771121140601e-10       7.685923770214e-11       8.078018178476e-14 
   12       1.157599383611e-10       4.035757104200e-16       1.195310573947e-13       6.733831774285e-18       7.666280419655e-10       6.801023949935e-11       3.853441844657e-14 
   13       1.166347406072e-10       3.675652852875e-16       1.236989948881e-13       7.860429258132e-18       6.759057170534e-10       6.080217657024e-11      -5.770230705991e-16 
   14       1.176999070199e-10       3.690469760439e-16       1.308870170433e-13       9.075093403796e-18       6.004033079828e-10       5.450718872910e-11      -2.857418657507e-14 
   15       1.189609171194e-10       3.934412878004e-16       1.393984098183e-13       1.037813604430e-17       5.368338753154e-10       4.921926790739e-11      -4.217381574033e-14 
   16       1.203663420054e-10       4.278860282832e-16       1.481682264637e-13       1.176988341801e-17       4.827719605337e-10       4.468495319078e-11      -4.287473584599e-14 
   17       1.218917551168e-10       4.721778103693e-16       1.567000858450e-13       1.325067193030e-17       4.363851349112e-10       4.073640517986e-11      -3.473246763824e-14 
   18       1.235016564377e-10       5.349419499818e-16       1.650781594680e-13       1.482084372290e-17       3.961149211182e-10       3.724839904246e-11      -2.289412529802e-14 
   19       1.252076010248e-10       6.209794438326e-16       1.735453494383e-13       1.648073932786e-17       3.613247587561e-10       3.419206960168e-11      -1.115470755243e-14 
   20       1.269826322428e-10       7.323186038035e-16       1.823681621059e-13       1.823069634522e-17       3.306769220612e-10       3.149574832415e-11      -3.073777203198e-15 
   21       1.288355836944e-10       8.671642951481e-16       1.917218267898e-13       2.007103828811e-17       3.036919437232e-10       2.911425676526e-11       3.611167712682e-16 
   22       1.307534420598e-10       1.022049233439e-15       2.016772989050e-13       2.200207374170e-17       2.797259190988e-10       2.697272584595e-11      -5.931324405613e-16 
   23       1.327319259863e-10       1.197104063629e-15       2.119806445152e-13       2.402408649085e-17       2.584506935593e-10       2.504608409511e-11      -4.650466525273e-15 
   24       1.347501877821e-10       1.393261364525e-15       2.222117012088e-13       2.613733458471e-17       2.393758368391e-10       2.330432912012e-11      -9.876005039240e-15 
   25       1.368217893480e-10       1.610218578201e-15       2.320365401491e-13       2.834204275770e-17       2.222779259132e-10       2.174342221423e-11      -1.468499435905e-14 
   26       1.389518982779e-10       1.847316020568e-15       2.411116274691e-13       3.063840096675e-17       2.068483882673e-10       2.034848581179e-11      -1.761671016734e-14 
   27       1.411255331241e-10       2.105390678580e-15       2.491341972767e-13       3.302656006443e-17       1.929027583246e-10       1.908752310200e-11      -1.833104100699e-14 
   28       1.433137062580e-10       2.385896914078e-15       2.558462431494e-13       3.550663110907e-17       1.802012239653e-10       1.791697630318e-11      -1.698839803325e-14 
   29       1.455267126888e-10       2.690741697929e-15       2.612545273586e-13       3.807869086505e-17       1.686793367663e-10       1.683588002435e-11      -1.423000676252e-14 
   30       1.477767229053e-10       3.022177195950e-15       2.654905113664e-13       4.074277260488e-17       1.582138064820e-10       1.584884168084e-11      -1.104975689937e-14 
   31       1.500649813462e-10       3.382442372911e-15       2.687116891004e-13       4.349886844447e-17       1.485916765891e-10       1.495154520317e-11      -8.516880860590e-15 
   32       1.523936756771e-10       3.772634057996e-15       2.709529457413e-13       4.634695497876e-17       1.397635339790e-10       1.413522790961e-11      -6.959944717256e-15 
   33       1.547556785612e-10       4.193401100206e-15       2.722223220281e-13       4.928697241467e-17       1.316671923614e-10       1.338201507009e-11      -6.482878998544e-15 
   34       1.571372472993e-10       4.645314780753e-15       2.725158036399e-13       5.231882711786e-17       1.241896419923e-10       1.267034208297e-11      -7.087683796236e-15 
   35       1.595435775487e-10       5.129194041412e-15       2.717332243414e-13       5.544243275593e-17       1.172928000239e-10       1.200151461349e-11      -8.376773915765e-15 
   36       1.619804548650e-10       5.645880964114e-15       2.697309443042e-13       5.865768056601e-17       1.109215278015e-10       1.138161223149e-11      -9.731898685276e-15 
   37       1.644485793215e-10       6.196172630331e-15       2.663601755324e-13       6.196444620765e-17       1.049931277305e-10       1.081362777822e-11      -1.053844924584e-14 
   38       1.669500393890e-10       6.780899486172e-15       2.615285825998e-13       6.536265545436e-17       9.949240431796e-11       1.029550640107e-11      -1.072291522891e-14 
   39       1.694827474251e-10       7.400866006457e-15       2.551577267874e-13       6.885223954481e-17       9.440201317687e-11       9.820906842815e-12      -1.038963644217e-14 
   40       1.720378521053e-10       8.056825410528e-15       2.471662668359e-13       7.243311781976e-17       8.967354124382e-11       9.379289551453e-12      -9.680287558649e-15 
   41       1.746044338126e-10       8.749469320376e-15       2.374893711932e-13       7.610521840114e-17       8.524439934950e-11       8.959154160966e-12      -8.762651083185e-15 
   42       1.771870337456e-10       9.479400811203e-15       2.261451073263e-13       7.986854787420e-17       8.110163050205e-11       8.559839133679e-12      -7.786172562380e-15 
   43       1.797927076215e-10       1.024714689892e-14       2.131892776243e-13       8.372314460526e-17       7.723431045029e-11       8.182989389019e-12      -6.916395860717e-15 
   44       1.824258619249e-10       1.105316095657e-14       1.986987428512e-13       8.766906177568e-17       7.361439859177e-11       7.829216146929e-12      -6.349254724259e-15 
   45       1.850886419801e-10       1.189786309317e-14       1.827434910985e-13       9.170637471871e-17       7.020677112548e-11       7.498224706047e-12      -6.253404820335e-15 
   46       1.877829400103e-10       1.278178478192e-14       1.652902561346e-13       9.583520175470e-17       6.700610937344e-11       7.189467041146e-12      -6.572707141689e-15 
   47       1.905084781492e-10       1.370546090390e-14       1.462719838731e-13       1.000556923214e-16       6.400872104623e-11       6.901522822511e-12      -7.167548937319e-15 
   48       1.932619200580e-10       1.466938798448e-14       1.256138363575e-13       1.043680236752e-16       6.120141310874e-11       6.631813667563e-12      -7.867368216818e-15 
   49       1.960366111352e-10       1.567402288102e-14       1.032326353402e-13       1.087724028294e-16       5.856078506831e-11       6.376521034402e-12      -8.468913771861e-15 
   50       1.988255311822e-10       1.671973398165e-14       7.905039595831e-14       1.132690498040e-16       5.606028423838e-11       6.131681024440e-12      -8.790253123545e-15 
   51       2.016316999668e-10       1.780664223023e-14       5.304054943607e-14       1.178581375154e-16       5.369526878503e-11       5.897009614138e-12      -8.854115657724e-15 
   52       2.044601470688e-10       1.893473468088e-14       2.519330520404e-14       1.225398389214e-16       5.146352616636e-11       5.672973813133e-12      -8.751308251711e-15 
   53       2.073148402455e-10       2.010390475231e-14      -4.497238501493e-15       1.273143453186e-16       4.935777240927e-11       5.459679416184e-12      -8.590179464187e-15 
   54       2.101985768163e-10       2.131394868065e-14      -3.603298799642e-14       1.321818674018e-16       4.736531066701e-11       5.256844280660e-12      -8.497502988491e-15 
   55       2.131131805384e-10       2.256464368066e-14      -6.941601595334e-14       1.371425961619e-16       4.547190959417e-11       5.063985971329e-12      -8.586979724526e-15 
   56       2.160603983391e-10       2.385601329328e-14      -1.046625018291e-13       1.421965717798e-16       4.367534893942e-11       4.881100501072e-12      -8.853557049677e-15 
   57       2.190410361022e-10       2.518812174303e-14      -1.417920677467e-13       1.473437840186e-16       4.197464090559e-11       4.708105397375e-12      -9.254403623850e-15 
   58       2.220545780838e-10       2.656099764920e-14      -1.808238718272e-13       1.525842090359e-16       4.036593197386e-11       4.544622137268e-12      -9.738620682934e-15 
   59       2.250990901991e-10       2.797463366219e-14      -2.217766678507e-13       1.579178088784e-16       3.884232586976e-11       4.389957776796e-12      -1.024686387984e-14 
   60       2.281711233087e-10       2.942898609977e-14      -2.646688649173e-13       1.633445309769e-16       3.739370652930e-11       4.243086580492e-12      -1.071096512551e-14 
   61       2.312671738046e-10       3.092387993578e-14      -3.095117005729e-13       1.688642870332e-16       3.600954964054e-11       4.102931077533e-12      -1.106898030502e-14 
   62       2.343886672673e-10       3.245869966786e-14      -3.562868345594e-13       1.744768852897e-16       3.468849522481e-11       3.969320509430e-12      -1.131513487498e-14 
   63       2.375379269150e-10       3.403262810049e-14      -4.049638087225e-13       1.801820820910e-16       3.343061935278e-11       3.842215896450e-12      -1.146046906197e-14 
   64       2.407166686493e-10       3.564473156958e-14      -4.555063340524e-13       1.859796000128e-16       3.223455459120e-11       3.721420900491e-12      -1.151851034013e-14 
   65       2.439259537539e-10       3.729395657568e-14      -5.078721318409e-13       1.918691267025e-16       3.109740779416e-11       3.606572955135e-12      -1.150538472348e-14 
   66       2.471661415921e-10       3.897912641719e-14      -5.620127748370e-13       1.978503137199e-16       3.001467789446e-11       3.497134395704e-12      -1.143992805837e-14 
   67       2.504368423060e-10       4.069893782354e-14      -6.178735284043e-13       2.039227753775e-16       2.898017369488e-11       3.392383589309e-12      -1.134379731579e-14 
   68       2.537374927042e-10       4.245209124928e-14      -6.754033049421e-13       2.100861469720e-16       2.798766862331e-11       3.291605198215e-12      -1.123695728589e-14 
   69       2.570693251642e-10       4.423771993929e-14      -7.345872244297e-13       2.163402757683e-16       2.703643811295e-11       3.194725564699e-12      -1.112282993592e-14 
   70       2.604337145396e-10       4.605504215469e-14      -7.954203964658e-13       2.226850668088e-16       2.612670171312e-11       3.101790729075e-12      -1.100032202587e-14 
   71       2.638315594681e-10       4.790323525510e-14      -8.578984887764e-13       2.291204273004e-16       2.525794829358e-11       3.012774978443e-12      -1.086817660123e-14 
   72       2.672632510085e-10       4.978143575027e-14      -9.220178270228e-13       2.356462669740e-16       2.442889825946e-11       2.927577069664e-12      -1.072496600922e-14 
   73       2.707286412767e-10       5.168873935173e-14      -9.877754946091e-13       2.422624984440e-16       2.363746576620e-11       2.846016452339e-12      -1.056908491499e-14 
   74       2.742270120828e-10       5.362420102443e-14      -1.055169432490e-12       2.489690375682e-16       2.288072093449e-11       2.767829491787e-12      -1.039874331784e-14 
   75       2.777570435676e-10       5.558683503840e-14      -1.124198538979e-12       2.557658038069e-16       2.215485206521e-11       2.692665692019e-12      -1.021195956745e-14 
   76       2.813174356853e-10       5.757555265273e-14      -1.194854572282e-12       2.626527914428e-16       2.145611245323e-11       2.620178074866e-12      -1.000772829499e-14 
   77       2.849089728201e-10       5.958896193448e-14      -1.267095932751e-12       2.696302974380e-16       2.078394368299e-11       2.550321693747e-12      -9.789785524592e-15 
   78       2.885327804305e-10       6.162553135999e-14      -1.340869258814e-12       2.766987359741e-16       2.013835587920e-11       2.483102946143e-12      -9.563520649867e-15 
   79       2.921896879183e-10       6.368364773672e-14      -1.416117132939e-12       2.838585730616e-16       1.951897632445e-11       2.418488430227e-12      -9.334879260805e-15 
   80       2.958802106522e-10       6.576161497597e-14      -1.492778013342e-12       2.911103283528e-16       1.892503186414e-11       2.356403098586e-12      -9.110380252569e-15 
   81       2.996045319915e-10       6.785765286563e-14      -1.570786165712e-12       2.984545769536e-16       1.835533131140e-11       2.296728411950e-12      -8.897132934293e-15 
   82       3.033624853102e-10       6.996989584292e-14      -1.650071594921e-12       3.058919512371e-16       1.780824785204e-11       2.239300492912e-12      -8.702854137884e-15 
   83       3.071535360205e-10       7.209639176713e-14      -1.730559976740e-12       3.134231426557e-16       1.728170144947e-11       2.183908279660e-12      -8.535885326814e-15 
   84       3.109771041615e-10       7.423518119246e-14      -1.812178490335e-12       3.210488424300e-16       1.677366470952e-11       2.130345685920e-12      -8.403074476190e-15 
   85       3.148336329868e-10       7.638455297437e-14      -1.894874576268e-12       3.287695483485e-16       1.628381537158e-11       2.078582060258e-12      -8.302980785094e-15 
   86       3.187236653912e-10       7.854282898428e-14      -1.978600177435e-12       3.365857291135e-16       1.581212677954e-11       2.028616731656e-12      -8.231569579897e-15 
   87       3.226475070250e-10       8.070828750077e-14      -2.063306145211e-12       3.444978833916e-16       1.535836011125e-11       1.980426591023e-12      -8.184228882352e-15 
   88       3.266052140407e-10       8.287916333538e-14      -2.148942270341e-12       3.525065405982e-16       1.492205558115e-11       1.933965152586e-12      -8.155750632193e-15 
   89       3.305965808417e-10       8.505364795818e-14      -2.235457313824e-12       3.606122616835e-16       1.450252364280e-11       1.889161615286e-12      -8.140311909738e-15 
   90       3.346211278286e-10       8.722988962355e-14      -2.322799037804e-12       3.688156399172e-16       1.409883619150e-11       1.845919924166e-12      -8.131456158487e-15 
   91       3.386780891481e-10       8.940599349580e-14      -2.410914236461e-12       3.771173016743e-16       1.370981776687e-11       1.804117831769e-12      -8.122074407729e-15 
   92       3.427664004393e-10       9.158002177490e-14      -2.499748766897e-12       3.855179072203e-16       1.333403675540e-11       1.763605959527e-12      -8.104386495137e-15 
   93       3.468850325082e-10       9.375001557811e-14      -2.589246268277e-12       3.940180707091e-16       1.297014525834e-11       1.724244721928e-12      -8.071647385534e-15 
   94       3.510340763671e-10       9.591406407673e-14      -2.679344031799e-12       4.026181047077e-16       1.261797627541e-11       1.686023490254e-12      -8.023600472708e-15 
   95       3.552137994905e-10       9.807024603828e-14      -2.769976563788e-12       4.113182385212e-16       1.227759603986e-11       1.648957699076e-12      -7.961813553373e-15 
   96       3.594243070268e-10       1.002166094157e-13      -2.861076854807e-12       4.201186952375e-16       1.194896609892e-11       1.613052167135e-12      -7.888031647407e-15 
   97       3.636655342936e-10       1.023511717715e-13      -2.952576392539e-12       4.290196914033e-16       1.163193930247e-11       1.578300678469e-12      -7.804181900559e-15 
   98       3.679372392743e-10       1.044719207024e-13      -3.044405174672e-12       4.380214367004e-16       1.132625579165e-11       1.544685563544e-12      -7.712378487168e-15 
   99       3.722389951140e-10       1.065768142634e-13      -3.136491721779e-12       4.471241336224e-16       1.103153898754e-11       1.512177280378e-12      -7.614927512873e-15 
  100       3.765701826154e-10       1.086637813923e-13      -3.228763090202e-12       4.563279771511e-16       1.074729157982e-11       1.480733995675e-12      -7.514331917328e-15 
  101       3.809299827348e-10       1.107307223336e-13      -3.321144884933e-12       4.656331544325e-16       1.047289151540e-11       1.450301165952e-12      -7.413296376914e-15 
  102       3.853173690784e-10       1.127755090636e-13      -3.413561272500e-12       4.750398444534e-16       1.020758798710e-11       1.420811118666e-12      -7.314732207453e-15 
  103       3.897311003982e-10       1.147959857138e-13      -3.505934993846e-12       4.845482177177e-16       9.950497422250e-12       1.392182633347e-12      -7.221762266924e-15 
  104       3.941699835122e-10       1.167900262524e-13      -3.598188658697e-12       4.941585526560e-16       9.700803883242e-12       1.364339832141e-12      -7.137047741290e-15 
  105       3.986337186784e-10       1.187557154862e-13      -3.690248800048e-12       5.038716034590e-16       9.458399739554e-12       1.337272659868e-12      -7.060654370901e-15 
  106       4.031221549605e-10       1.206911934137e-13      -3.782042393946e-12       5.136882815612e-16       9.223324465745e-12       1.310983831080e-12      -6.991905780594e-15 
  107       4.076350255240e-10       1.225946011938e-13      -3.873495653552e-12       5.236095442922e-16       8.995566214243e-12       1.285470046021e-12      -6.930033338622e-15 
