# dimensionless total lensed [l(l+1)/2pi] C_l's
# for l=2 to 2600, i.e. number of multipoles equal to 2599
#
# -> if you prefer output in CAMB/HealPix/LensPix units/order, set 'format' to 'camb' in input file
# -> if you don't want to see such a header, set 'headers' to 'no' in input file
# -> for CMB lensing (phi), these are C_l^phi-phi for the lensing potential.
#    Remember the conversion factors:
#    C_l^dd (deflection) = l(l+1) C_l^phi-phi
#    C_l^gg (shear/convergence) = 1/4 (l(l+1))^2 C_l^phi-phi
#
# 1:l     2:TT                     3:EE                     4:TE                     5:BB                     6:phiphi                 7:TPhi                   8:Ephi               
    2       1.462575539853e-10       7.770865702285e-15       5.128517554597e-13       1.750761983633e-19       8.643530589058e-09       4.793742819160e-10      -2.484408979629e-12 
    3       1.378298847625e-10       1.435799868132e-14       6.966816759308e-13       3.497326759255e-19       5.308101937458e-09       3.420142712574e-10      -2.219049087611e-12 
    4       1.292168368600e-10       1.925882867472e-14       7.915512666585e-13       5.819921220001e-19       3.694067201216e-09       2.606118035601e-10      -1.825595267843e-12 
    5       1.220351573995e-10       2.201658939718e-14       8.301567680173e-13       8.713958428064e-19       2.759556065493e-09       2.071066830624e-10      -1.440901996905e-12 
    6       1.163190524299e-10       2.308174461394e-14       8.350933521609e-13       1.217452109894e-18       2.156848929509e-09       1.694847285410e-10      -1.106527293834e-12 
    7       1.118034853758e-10       2.317923859972e-14       8.218492416793e-13       1.619683330799e-18       1.740790754647e-09       1.417697875823e-10      -8.379741086829e-13 
    8       1.082521202186e-10       2.289357780430e-14       7.994312766104e-13       2.077675880445e-18       1.438890245647e-09       1.206386544757e-10      -6.363430500227e-13 
    9       1.054543140287e-10       2.257079021345e-14       7.731599040268e-13       2.591129484442e-18       1.211416520452e-09       1.041006238797e-10      -4.943318519509e-13 
   10       1.032434471037e-10       2.236975046025e-14       7.462525378627e-13       3.159902975631e-18       1.035112512698e-09       9.088608598055e-11      -3.999757420736e-13 
   11       1.015266678929e-10       2.234380976215e-14       7.203180316675e-13       3.784053341873e-18       8.731340695629e-10       8.027481352872e-11      -3.433609534823e-13 
   12       1.001924709040e-10       2.249579403630e-14       6.959744318331e-13       4.463865243853e-18       7.630072349101e-10       7.119798546521e-11      -3.063141943091e-13 
   13       9.916815047724e-11       2.280392692009e-14       6.734343733778e-13       5.199868596577e-18       6.725917157126e-10       6.376817399885e-11      -2.777573317037e-13 
   14       9.838761850727e-11       2.323491860678e-14       6.526903070118e-13       5.992842359427e-18       5.973557278492e-10       5.728470906043e-11      -2.554643011097e-13 
   15       9.783782439787e-11       2.375406064852e-14       6.334146603440e-13       6.843803342971e-18       5.340197849691e-10       5.182554119584e-11      -2.318624702172e-13 
   16       9.747297312071e-11       2.433311607728e-14       6.149988670006e-13       7.753979585821e-18       4.801641242384e-10       4.714027323632e-11      -2.067380778424e-13 
   17       9.726021107630e-11       2.495326870679e-14       5.970346909222e-13       8.724768647485e-18       4.339608330994e-10       4.306147848027e-11      -1.812578042703e-13 
   18       9.717037230974e-11       2.560126992535e-14       5.793167433073e-13       9.757690270999e-18       3.938555164188e-10       3.945977792867e-11      -1.574113390096e-13 
   19       9.721315885888e-11       2.627385327603e-14       5.617975882153e-13       1.085427720200e-17       3.592126105798e-10       3.630051510467e-11      -1.366849046137e-13 
   20       9.735297551186e-11       2.696038253600e-14       5.440191345873e-13       1.201608721442e-17       3.286985879716e-10       3.350288720806e-11      -1.199505682900e-13 
   21       9.759454116408e-11       2.765950050262e-14       5.260605783418e-13       1.324450682443e-17       3.018350393646e-10       3.102454534329e-11      -1.073559939109e-13 
   22       9.792230323484e-11       2.836778102446e-14       5.079290278556e-13       1.454077397465e-17       2.779799563771e-10       2.879568228700e-11      -9.841895337032e-14 
   23       9.833248376375e-11       2.908635675780e-14       4.896511849171e-13       1.590579224376e-17       2.568059825475e-10       2.678974749759e-11      -9.235868170312e-14 
   24       9.880488624102e-11       2.981431683067e-14       4.711020258454e-13       1.734015279554e-17       2.378242936940e-10       2.497199875294e-11      -8.798519228464e-14 
   25       9.934735109119e-11       3.055248073116e-14       4.523434692189e-13       1.884397578309e-17       2.208120393577e-10       2.333622490719e-11      -8.417121091394e-14 
   26       9.995853893122e-11       3.129966197782e-14       4.333591191934e-13       2.041692805701e-17       2.054616743554e-10       2.186662842334e-11      -7.975210533141e-14 
   27       1.006259148634e-10       3.205614561640e-14       4.140715254652e-13       2.205812271771e-17       1.915892854187e-10       2.053633694078e-11      -7.440080476425e-14 
   28       1.013254047384e-10       3.282105254952e-14       3.943159306050e-13       2.376614147418e-17       1.789559189332e-10       1.930755941449e-11      -6.812401426710e-14 
   29       1.020650390906e-10       3.359592350677e-14       3.741392730005e-13       2.553907978578e-17       1.674972227377e-10       1.817725685408e-11      -6.136382507183e-14 
   30       1.028523378996e-10       3.438092495912e-14       3.535660964397e-13       2.737445687960e-17       1.570903232143e-10       1.714400950616e-11      -5.480033413105e-14 
   31       1.036843937437e-10       3.517434007707e-14       3.325423579339e-13       2.926927041722e-17       1.475231338551e-10       1.619730907354e-11      -4.912618805201e-14 
   32       1.045628053585e-10       3.597677501789e-14       3.110974449600e-13       3.122037000146e-17       1.387463517083e-10       1.532992419017e-11      -4.452943210242e-14 
   33       1.054817590510e-10       3.678803473585e-14       2.892235657396e-13       3.322416554337e-17       1.306979949193e-10       1.452828671793e-11      -4.101291864581e-14 
   34       1.064290469126e-10       3.760668540722e-14       2.668641229926e-13       3.527669400182e-17       1.232655302547e-10       1.377467318660e-11      -3.849322981521e-14 
   35       1.074079313303e-10       3.843321998883e-14       2.440543500992e-13       3.737429618555e-17       1.164109860572e-10       1.306942909319e-11      -3.670115689186e-14 
   36       1.084213498584e-10       3.926767664532e-14       2.208178232177e-13       3.951314828064e-17       1.100794408744e-10       1.241561197038e-11      -3.523284666643e-14 
   37       1.094677196451e-10       4.010929097549e-14       1.971443233567e-13       4.168939613390e-17       1.041885694459e-10       1.181313206007e-11      -3.366962149874e-14 
   38       1.105489355922e-10       4.095873542201e-14       1.730617199166e-13       4.390026846920e-17       9.872319754281e-11       1.126000722473e-11      -3.192894121033e-14 
   39       1.116639352010e-10       4.181639932010e-14       1.485795819931e-13       4.614334185481e-17       9.366602469943e-11       1.075092771073e-11      -3.002436841968e-14 
   40       1.128058325958e-10       4.268164804621e-14       1.236645097891e-13       4.841626271948e-17       8.896886056164e-11       1.027648615142e-11      -2.797167988459e-14 
   41       1.139656363893e-10       4.355334935080e-14       9.826553587047e-14       5.071710359068e-17       8.456942383381e-11       9.826140491737e-12      -2.580059127524e-14 
   42       1.151462201947e-10       4.443192409875e-14       7.241046489888e-14       5.304553298412e-17       8.045479431550e-11       9.399077308306e-12      -2.359435799028e-14 
   43       1.163519468398e-10       4.531777709698e-14       4.613376033081e-14       5.540205316797e-17       7.661408085139e-11       8.996314569522e-12      -2.146318052968e-14 
   44       1.175845099289e-10       4.621065234422e-14       1.944744920214e-14       5.778773133655e-17       7.301938036781e-11       8.617595305979e-12      -1.953451429011e-14 
   45       1.188437726692e-10       4.711000407158e-14      -7.648605784712e-15       6.020428251056e-17       6.963575160059e-11       8.261776191953e-12      -1.792090602498e-14 
   46       1.201312247127e-10       4.801639957956e-14      -3.512703448854e-14       6.265425453996e-17       6.645788377364e-11       7.928395299317e-12      -1.661000604793e-14 
   47       1.214470958404e-10       4.893042214803e-14      -6.296451968990e-14       6.514096572350e-17       6.348208641195e-11       7.616382849155e-12      -1.554313986346e-14 
   48       1.227891319471e-10       4.985222908198e-14      -9.115469021931e-14       6.766850725797e-17       6.069522902495e-11       7.323520674999e-12      -1.464446554459e-14 
   49       1.241523868758e-10       5.078151011807e-14      -1.197096063324e-13       7.024178530568e-17       5.807403904389e-11       7.046359232056e-12      -1.381993351118e-14 
   50       1.255314123239e-10       5.171775615524e-14      -1.486492656307e-13       7.286611230323e-17       5.559211335777e-11       6.781231400583e-12      -1.298178033653e-14 
   51       1.269280112728e-10       5.266124793754e-14      -1.779633166496e-13       7.554575251021e-17       5.324482539785e-11       6.527810851678e-12      -1.213226149916e-14 
   52       1.283452293130e-10       5.361226384118e-14      -2.076415204185e-13       7.828505438233e-17       5.102996524147e-11       6.286376105023e-12      -1.130084885316e-14 
   53       1.297850474608e-10       5.457076665620e-14      -2.376857213818e-13       8.108888718534e-17       4.894028588198e-11       6.056767520659e-12      -1.052084062199e-14 
   54       1.312482868444e-10       5.553637659647e-14      -2.681107690348e-13       8.396266185036e-17       4.696316415909e-11       5.838355922053e-12      -9.829522778182e-15 
   55       1.327350639102e-10       5.650859957733e-14      -2.989355173743e-13       8.691146163269e-17       4.508445351490e-11       5.630316016318e-12      -9.258057682429e-15 
   56       1.342465068255e-10       5.748764028819e-14      -3.301510935252e-13       8.993713341134e-17       4.330193984193e-11       5.432598076986e-12      -8.797838807667e-15 
   57       1.357832985157e-10       5.847374382954e-14      -3.617463606773e-13       9.304051033559e-17       4.161463444934e-11       5.245142688944e-12      -8.426060475421e-15 
   58       1.373450912425e-10       5.946694146847e-14      -3.937176730438e-13       9.622222518636e-17       4.001870317952e-11       5.067578022877e-12      -8.115024642961e-15 
   59       1.389304327376e-10       6.046703359416e-14      -4.260694109188e-13       9.948269654852e-17       3.850729065617e-11       4.899200333556e-12      -7.831902046384e-15 
   60       1.405366923371e-10       6.147357267339e-14      -4.588145157345e-13       1.028221149833e-16       3.707034453254e-11       4.738954458123e-12      -7.538493343690e-15 
   61       1.421611486778e-10       6.248599577286e-14      -4.919655581691e-13       1.062398970419e-16       3.569740766503e-11       4.585729687099e-12      -7.200087460122e-15 
   62       1.438047051911e-10       6.350409544574e-14      -5.255043892201e-13       1.097329353801e-16       3.438712461007e-11       4.439369101560e-12      -6.814900489440e-15 
   63       1.454688813103e-10       6.452762477593e-14      -5.594065954555e-13       1.132969295380e-16       3.313956679883e-11       4.299853217436e-12      -6.390850886495e-15 
   64       1.471546882239e-10       6.555614508276e-14      -5.936505948774e-13       1.169268533350e-16       3.195337293945e-11       4.166995297472e-12      -5.937094160881e-15 
   65       1.488625918644e-10       6.658901362214e-14      -6.282178716000e-13       1.206169241564e-16       3.082566743527e-11       4.040431856048e-12      -5.464072667366e-15 
   66       1.505924758983e-10       6.762537128769e-14      -6.630932105281e-13       1.243605722412e-16       2.975197880301e-11       3.919613164004e-12      -4.983565396317e-15 
   67       1.523436047155e-10       6.866413031192e-14      -6.982649320351e-13       1.281504099695e-16       2.872615809099e-11       3.803793753461e-12      -4.508737764123e-15 
   68       1.541151259759e-10       6.970419200057e-14      -7.337232807883e-13       1.319792574911e-16       2.774202151040e-11       3.692232962223e-12      -4.051495076182e-15 
   69       1.559077792243e-10       7.074517865886e-14      -7.694546885485e-13       1.358435295883e-16       2.679884718999e-11       3.584864978385e-12      -3.613808904977e-15 
   70       1.577224685892e-10       7.178682856006e-14      -8.054467651072e-13       1.397404830603e-16       2.589685076898e-11       3.481748130664e-12      -3.194714578484e-15 
   71       1.595597310638e-10       7.282877273371e-14      -8.416902253905e-13       1.436672174725e-16       2.503552291909e-11       3.382862812182e-12      -2.792833178751e-15 
   72       1.614197132953e-10       7.387052855006e-14      -8.781790769289e-13       1.476206714600e-16       2.421359186025e-11       3.288107357146e-12      -2.406352372549e-15 
   73       1.633021483734e-10       7.491149330439e-14      -9.149108073269e-13       1.515976190316e-16       2.342898587632e-11       3.197293917530e-12      -2.033007242016e-15 
   74       1.652063326194e-10       7.595093780134e-14      -9.518865717329e-13       1.555946658733e-16       2.267879583083e-11       3.110144339752e-12      -1.670061115304e-15 
   75       1.671311023758e-10       7.698799993928e-14      -9.891113803088e-13       1.596082456523e-16       2.195923768265e-11       3.026286041357e-12      -1.314286397220e-15 
   76       1.690753101140e-10       7.802175684468e-14      -1.026588116238e-12       1.636359553843e-16       2.126659204703e-11       2.945348855226e-12      -9.631408203390e-16 
   77       1.710394043039e-10       7.905147064336e-14      -1.064297915977e-12       1.676808508365e-16       2.060030354079e-11       2.867285065174e-12      -6.185862044809e-16 
   78       1.730240968099e-10       8.007637605911e-14      -1.102216535219e-12       1.717479313361e-16       1.996038114215e-11       2.792100510288e-12      -2.839344749298e-16 
   79       1.750298763679e-10       8.109560111238e-14      -1.140320260935e-12       1.758428935728e-16       1.934645411791e-11       2.719756775058e-12       3.728072310334e-17 
   80       1.770569956126e-10       8.210816231540e-14      -1.178585972333e-12       1.799721553611e-16       1.875775457432e-11       2.650169136479e-12       3.412986807697e-16 
   81       1.791054581060e-10       8.311295986724e-14      -1.216991201816e-12       1.841428794026e-16       1.819310000787e-11       2.583204511148e-12       6.241262818721e-16 
   82       1.811750053651e-10       8.410877284892e-14      -1.255514195945e-12       1.883629970487e-16       1.765087585611e-11       2.518679402372e-12       8.815326591549e-16 
   83       1.832651038898e-10       8.509425441842e-14      -1.294133976397e-12       1.926412320624e-16       1.712901804852e-11       2.456357847261e-12       1.109043850593e-15 
   84       1.853751943846e-10       8.606807382608e-14      -1.332829380672e-12       1.969859137102e-16       1.662551480556e-11       2.396010610208e-12       1.303196625423e-15 
   85       1.875055153087e-10       8.702938003612e-14      -1.371575867970e-12       2.014011379086e-16       1.614004583879e-11       2.337608535076e-12       1.465550491522e-15 
   86       1.896563927041e-10       8.797740651148e-14      -1.410348293100e-12       2.058900102849e-16       1.567258416670e-11       2.281157631849e-12       1.599334088842e-15 
   87       1.918279817020e-10       8.891132892431e-14      -1.449121922820e-12       2.104558036296e-16       1.522289243388e-11       2.226639671743e-12       1.708260740817e-15 
   88       1.940202579569e-10       8.983026281862e-14      -1.487872479651e-12       2.151019613110e-16       1.479051418871e-11       2.174011163653e-12       1.796544273164e-15 
   89       1.962330090817e-10       9.073326127288e-14      -1.526576185689e-12       2.198321006901e-16       1.437476516102e-11       2.123202330609e-12       1.868914832692e-15 
   90       1.984658260816e-10       9.161931256276e-14      -1.565209806419e-12       2.246500165359e-16       1.397472453978e-11       2.074116086225e-12       1.930634706110e-15 
   91       2.007180947896e-10       9.248733782367e-14      -1.603750694524e-12       2.295596844399e-16       1.358922625084e-11       2.026627011150e-12       1.987514138829e-15 
   92       2.029889873001e-10       9.333618871349e-14      -1.642176833703e-12       2.345652642313e-16       1.321685023451e-11       1.980580329525e-12       2.045927153771e-15 
   93       2.052777090154e-10       9.416473701412e-14      -1.680465500678e-12       2.396695999242e-16       1.285625948797e-11       1.935830719119e-12       2.111425977403e-15 
   94       2.075843008902e-10       9.497216392837e-14      -1.718588925870e-12       2.448694540691e-16       1.250728812319e-11       1.892367641956e-12       2.184311580406e-15 
   95       2.099089425692e-10       9.575771017430e-14      -1.756518058055e-12       2.501595596260e-16       1.217000158773e-11       1.850207058694e-12       2.263423093573e-15 
   96       2.122517025380e-10       9.652058686215e-14      -1.794223912534e-12       2.555340425765e-16       1.184436155832e-11       1.809352804120e-12       2.347476469574e-15 
   97       2.146125330661e-10       9.725997441910e-14      -1.831677595974e-12       2.609864046997e-16       1.153022196480e-11       1.769796110387e-12       2.435061065074e-15 
   98       2.169912651508e-10       9.797502151391e-14      -1.868850331251e-12       2.665095063505e-16       1.122732501406e-11       1.731515130262e-12       2.524636222847e-15 
   99       2.193876034596e-10       9.866484398159e-14      -1.905713482302e-12       2.720955492356e-16       1.093529721401e-11       1.694474460361e-12       2.614527853899e-15 
  100       2.218011212745e-10       9.932852374811e-14      -1.942238578962e-12       2.777360591914e-16       1.065364539746e-11       1.658624664401e-12       2.702925019579e-15 
  101       2.242312554344e-10       9.996510775502e-14      -1.978397341814e-12       2.834218689605e-16       1.038175274611e-11       1.623901796434e-12       2.787876513704e-15 
  102       2.266773012792e-10       1.005736068842e-13      -2.014161707034e-12       2.891431009692e-16       1.011887481445e-11       1.590226924093e-12       2.867287444668e-15 
  103       2.291384075926e-10       1.011529948825e-13      -2.049503851235e-12       2.948891501041e-16       9.864135553731e-12       1.557505651836e-12       2.938915817569e-15 
  104       2.316137609995e-10       1.017023006902e-13      -2.084395397954e-12       3.006512754984e-16       9.616725979814e-12       1.525650228047e-12       3.000875665887e-15 
  105       2.341031784187e-10       1.022209019470e-13      -2.118804861534e-12       3.064308117208e-16       9.376539304872e-12       1.494650294309e-12       3.053231213020e-15 
  106       2.366065855874e-10       1.027082693141e-13      -2.152699902656e-12       3.122320398536e-16       9.143614589625e-12       1.464510849004e-12       3.096612689334e-15 
  107       2.391238318151e-10       1.031638765630e-13      -2.186048131528e-12       3.180596888445e-16       8.917940032857e-12       1.435230291077e-12       3.131731135545e-15 
