# dimensionless total [l(l+1)/2pi] C_l's
# for l=2 to 2500, i.e. number of multipoles equal to 2499
#
# -> if you prefer output in CAMB/HealPix/LensPix units/order, set 'format' to 'camb' in input file
# -> if you don't want to see such a header, set 'headers' to 'no' in input file
# -> for CMB lensing (phi), these are C_l^phi-phi for the lensing potential.
#    Remember the conversion factors:
#    C_l^dd (deflection) = l(l+1) C_l^phi-phi
#    C_l^gg (shear/convergence) = 1/4 (l(l+1))^2 C_l^phi-phi
#
# 1:l     2:TT                     3:EE                     4:TE                     5:BB                     6:phiphi                 7:TPhi                   8:Ephi               
    2       1.482093138017e-10       4.419003074595e-15       3.765882984042e-13       0.000000000000e+00       8.828252520489e-09       4.818661818600e-10      -1.967917631498e-12 
    3       1.401132053900e-10       5.665119599013e-15       4.221023371431e-13       0.000000000000e+00       5.424566022508e-09       3.417536637304e-10      -1.490647002296e-12 
    4       1.324742023335e-10       4.899588950204e-15       3.936256863761e-13       0.000000000000e+00       3.770202568816e-09       2.588165203229e-10      -9.768863754825e-13 
    5       1.267373655742e-10       3.260970362900e-15       3.338883065470e-13       0.000000000000e+00       2.814204185264e-09       2.044479616104e-10      -5.442443956629e-13 
    6       1.227804734004e-10       1.808088523453e-15       2.672571849921e-13       0.000000000000e+00       2.198548611873e-09       1.663459970033e-10      -2.250233091682e-13 
    7       1.201731489507e-10       9.578682788414e-16       2.078075203551e-13       0.000000000000e+00       1.774116128211e-09       1.383658555004e-10      -2.075320530618e-14 
    8       1.186223618861e-10       6.030585349790e-16       1.616938906331e-13       0.000000000000e+00       1.466642307537e-09       1.171441891626e-10       8.425789998216e-14 
    9       1.178638910572e-10       4.778288925443e-16       1.302912245188e-13       0.000000000000e+00       1.235224316539e-09       1.006898271836e-10       1.145763138221e-13 
   10       1.176449891324e-10       4.039324339444e-16       1.122346811571e-13       0.000000000000e+00       1.055793635813e-09       8.766948187280e-11       9.749977468273e-14 
   11       1.179100778702e-10       3.339601465971e-16       1.047236557727e-13       0.000000000000e+00       8.901597532091e-10       7.748508041022e-11       5.854306440842e-14 
   12       1.184885947665e-10       2.830759939344e-16       1.045439417388e-13       0.000000000000e+00       7.778867114305e-10       6.849340260901e-11       1.645716603258e-14 
   13       1.193296265783e-10       2.631053058282e-16       1.088583326310e-13       0.000000000000e+00       6.857144807995e-10       6.119905540321e-11      -1.598770533076e-14 
   14       1.203900003996e-10       2.659582357755e-16       1.155240939480e-13       0.000000000000e+00       6.090243661192e-10       5.486930334689e-11      -3.401081847748e-14 
   15       1.216486708813e-10       2.790056652298e-16       1.231517202799e-13       0.000000000000e+00       5.444664937965e-10       4.953718254971e-11      -3.771473756713e-14 
   16       1.230183269125e-10       2.991256941857e-16       1.310421030800e-13       0.000000000000e+00       4.895734632463e-10       4.493510129401e-11      -3.112065048887e-14 
   17       1.245385414652e-10       3.318322617115e-16       1.389954577569e-13       0.000000000000e+00       4.424811580002e-10       4.091490010785e-11      -1.966890042747e-14 
   18       1.261385874960e-10       3.829091126700e-16       1.471934371797e-13       0.000000000000e+00       4.016046997127e-10       3.741812607301e-11      -8.559601338802e-15 
   19       1.278305309014e-10       4.529517028359e-16       1.558740420684e-13       0.000000000000e+00       3.662964922517e-10       3.438997746589e-11      -6.059772553029e-16 
   20       1.296088165149e-10       5.401442518847e-16       1.652402943681e-13       0.000000000000e+00       3.351963553663e-10       3.169554201147e-11       2.299152943071e-15 
   21       1.314726677619e-10       6.434876402134e-16       1.752907555233e-13       0.000000000000e+00       3.078165075306e-10       2.928591542765e-11       7.047610919447e-16 
   22       1.333908032379e-10       7.619856688218e-16       1.858626875589e-13       0.000000000000e+00       2.835026500445e-10       2.710604979281e-11      -3.584606064132e-15 
   23       1.353709946468e-10       8.958818633119e-16       1.965602978897e-13       0.000000000000e+00       2.619211325076e-10       2.515248727939e-11      -8.752034314999e-15 
   24       1.374101417046e-10       1.045600513891e-15       2.068810285971e-13       0.000000000000e+00       2.425736823169e-10       2.341213885140e-11      -1.285122242929e-14 
   25       1.395070709068e-10       1.211035161772e-15       2.165843149089e-13       0.000000000000e+00       2.252331305758e-10       2.185688448113e-11      -1.499773152003e-14 
   26       1.416451163348e-10       1.392140244150e-15       2.255026457227e-13       0.000000000000e+00       2.095859802342e-10       2.043976238498e-11      -1.481403791046e-14 
   27       1.438219880191e-10       1.590742162961e-15       2.334858981003e-13       0.000000000000e+00       1.954448225086e-10       1.914655873269e-11      -1.289848420632e-14 
   28       1.460301984602e-10       1.809247942765e-15       2.404235180834e-13       0.000000000000e+00       1.825661693295e-10       1.796458408421e-11      -1.025215212213e-14 
   29       1.482791463780e-10       2.049062894925e-15       2.463788477557e-13       0.000000000000e+00       1.708845014667e-10       1.689123387902e-11      -7.552938479386e-15 
   30       1.505710392667e-10       2.311287953529e-15       2.515120535239e-13       0.000000000000e+00       1.602746486441e-10       1.591680514572e-11      -5.503012387337e-15 
   31       1.528968799380e-10       2.596972253696e-15       2.559886693574e-13       0.000000000000e+00       1.505204994987e-10       1.502242989548e-11      -4.760572821365e-15 
   32       1.552601249260e-10       2.906987403484e-15       2.597646514407e-13       0.000000000000e+00       1.415718374608e-10       1.419970667929e-11      -5.177886404986e-15 
   33       1.576590427318e-10       3.242093526321e-15       2.627201222148e-13       0.000000000000e+00       1.333655039372e-10       1.343660039251e-11      -6.265641174121e-15 
   34       1.600843602724e-10       3.603006643200e-15       2.647192247738e-13       0.000000000000e+00       1.257868041064e-10       1.271750674600e-11      -7.465846001969e-15 
   35       1.625375843537e-10       3.990548746587e-15       2.656317632022e-13       0.000000000000e+00       1.187970516781e-10       1.204434884127e-11      -8.459347630335e-15 
   36       1.650172205085e-10       4.405541779085e-15       2.653167464475e-13       0.000000000000e+00       1.123402775974e-10       1.142205394882e-11      -8.956152300210e-15 
   37       1.675173739816e-10       4.848772695629e-15       2.636426269836e-13       0.000000000000e+00       1.063325759366e-10       1.085236875173e-11      -8.712120723630e-15 
   38       1.700428121447e-10       5.321022481867e-15       2.605805898326e-13       0.000000000000e+00       1.007585096905e-10       1.033280374323e-11      -7.876272373359e-15 
   39       1.725976628480e-10       5.823040972947e-15       2.561425307469e-13       0.000000000000e+00       9.560047734080e-11       9.856767882593e-12      -6.761769053412e-15 
   40       1.751806322721e-10       6.355535075175e-15       2.503574408056e-13       0.000000000000e+00       9.080938611933e-11       9.413408915066e-12      -5.759415326711e-15 
   41       1.777875141767e-10       6.919184874104e-15       2.432568103577e-13       0.000000000000e+00       8.632177394961e-11       8.990940910188e-12      -5.236904956749e-15 
   42       1.804211095942e-10       7.514705803300e-15       2.348225766655e-13       0.000000000000e+00       8.212448379136e-11       8.588759374689e-12      -5.185007529141e-15 
   43       1.830835494162e-10       8.142801435772e-15       2.250240166086e-13       0.000000000000e+00       7.820641835808e-11       8.208689078220e-12      -5.464679922983e-15 
   44       1.857731107785e-10       8.804144207249e-15       2.138319253640e-13       0.000000000000e+00       7.453913127711e-11       7.851560787281e-12      -5.900718765936e-15 
   45       1.884862133244e-10       9.499363001168e-15       2.012154106601e-13       0.000000000000e+00       7.108699934495e-11       7.517304860226e-12      -6.319513078111e-15 
   46       1.912250010931e-10       1.022900577493e-14       1.871311771427e-13       0.000000000000e+00       6.784462104449e-11       7.205483666845e-12      -6.681047579139e-15 
   47       1.939913910673e-10       1.099356265835e-14       1.715310063571e-13       0.000000000000e+00       6.480824888951e-11       6.914760785324e-12      -6.982547230935e-15 
   48       1.967846682951e-10       1.179347320467e-14       1.543644683521e-13       0.000000000000e+00       6.196450899374e-11       6.642648829407e-12      -7.221965925910e-15 
   49       1.996012483623e-10       1.262912395699e-14       1.355787192735e-13       0.000000000000e+00       5.928968505496e-11       6.385427549577e-12      -7.398046597396e-15 
   50       2.024368467294e-10       1.350084621999e-14       1.151231111211e-13       0.000000000000e+00       5.675686694989e-11       6.139201937962e-12      -7.514381012196e-15 
   51       2.052942319966e-10       1.440891430810e-14       9.296496572213e-14       0.000000000000e+00       5.436134522672e-11       5.903605141915e-12      -7.592748825648e-15 
   52       2.081771665937e-10       1.535354261525e-14       6.907773255342e-14       0.000000000000e+00       5.210087198305e-11       5.678959097331e-12      -7.663503166826e-15 
   53       2.110880625373e-10       1.633488300158e-14       4.343657427779e-14       0.000000000000e+00       4.996806100230e-11       5.465194791265e-12      -7.762129850735e-15 
   54       2.140278571671e-10       1.735302236957e-14       1.601839079290e-14       0.000000000000e+00       4.795004183707e-11       5.261824010346e-12      -7.929495709070e-15 
   55       2.169966637337e-10       1.840802389379e-14      -1.319671188084e-14       0.000000000000e+00       4.603238973137e-11       5.068182170031e-12      -8.199570714792e-15 
   56       2.199961970992e-10       1.950006825736e-14      -4.422064271698e-14       0.000000000000e+00       4.421285110084e-11       4.884292165453e-12      -8.558453707078e-15 
   57       2.230277329756e-10       2.062934325602e-14      -7.706087526582e-14       0.000000000000e+00       4.249042185636e-11       4.710165634792e-12      -8.975602747642e-15 
   58       2.260912938418e-10       2.179600251105e-14      -1.117217098879e-13       0.000000000000e+00       4.086119488030e-11       4.545533375328e-12      -9.415235028560e-15 
   59       2.291855548696e-10       2.300016474626e-14      -1.482041934127e-13       0.000000000000e+00       3.931818070101e-11       4.389827653440e-12      -9.836087169021e-15 
   60       2.323077498486e-10       2.424191306476e-14      -1.865060387976e-13       0.000000000000e+00       3.785112816735e-11       4.242164514613e-12      -1.019117551208e-14 
   61       2.354549775603e-10       2.552121446337e-14      -2.266223661740e-13       0.000000000000e+00       3.644937294270e-11       4.101589917995e-12      -1.043856562642e-14 
   62       2.386286763789e-10       2.683765890030e-14      -2.685483021142e-13       0.000000000000e+00       3.511153582011e-11       3.967922719954e-12      -1.057704787840e-14 
   63       2.418309916767e-10       2.819066010869e-14      -3.122768238862e-13       0.000000000000e+00       3.383769298882e-11       3.841070377141e-12      -1.061808071059e-14 
   64       2.450634153468e-10       2.957952700144e-14      -3.577979363455e-13       0.000000000000e+00       3.262645870170e-11       3.720772684309e-12      -1.057559549669e-14 
   65       2.483267361643e-10       3.100346041731e-14      -4.050986176559e-13       0.000000000000e+00       3.147490202020e-11       3.606592455273e-12      -1.046610615199e-14 
   66       2.516209901462e-10       3.246154986703e-14      -4.541627650103e-13       0.000000000000e+00       3.037846355931e-11       3.497906203868e-12      -1.030881874392e-14 
   67       2.549454109125e-10       3.395277027931e-14      -5.049711403518e-13       0.000000000000e+00       2.933087223242e-11       3.393894824904e-12      -1.012574110251e-14 
   68       2.582991008881e-10       3.547610964980e-14      -5.575035525959e-13       0.000000000000e+00       2.832582113678e-11       3.293753591105e-12      -9.937450879644e-15 
   69       2.616833137962e-10       3.703098929603e-14      -6.117460390934e-13       0.000000000000e+00       2.736257563500e-11       3.197392385765e-12      -9.749158964252e-15 
   70       2.650995476089e-10       3.861692330294e-14      -6.676850484979e-13       0.000000000000e+00       2.644135727657e-11       3.104861266443e-12      -9.562006082338e-15 
   71       2.685488339828e-10       4.023339524684e-14      -7.253053358823e-13       0.000000000000e+00       2.556164762249e-11       3.016140059529e-12      -9.377153088145e-15 
   72       2.720317070554e-10       4.187985828937e-14      -7.845899656601e-13       0.000000000000e+00       2.472214998098e-11       2.931134650306e-12      -9.195779537539e-15 
   73       2.755481722416e-10       4.355573527153e-14      -8.455203145052e-13       0.000000000000e+00       2.392075114327e-11       2.849673273009e-12      -9.019082261391e-15 
   74       2.790976750298e-10       4.526041880760e-14      -9.080760742725e-13       0.000000000000e+00       2.315448311928e-11       2.771502800891e-12      -8.848273938965e-15 
   75       2.826790697789e-10       4.699327137915e-14      -9.722352549179e-13       0.000000000000e+00       2.241948487343e-11       2.696285036280e-12      -8.684581671302e-15 
   76       2.862912251221e-10       4.875355421585e-14      -1.037973143073e-12       0.000000000000e+00       2.171196128453e-11       2.623685738690e-12      -8.529188451881e-15 
   77       2.899350366102e-10       5.054019875770e-14      -1.105258952060e-12       0.000000000000e+00       2.103134649625e-11       2.553668652813e-12      -8.383048410192e-15 
   78       2.936117260983e-10       5.235199349497e-14      -1.174058563461e-12       0.000000000000e+00       2.037765058052e-11       2.486248606850e-12      -8.247035128537e-15 
   79       2.973222198412e-10       5.418765013997e-14      -1.244335499069e-12       0.000000000000e+00       1.975049596095e-11       2.421401752056e-12      -8.121993200346e-15 
   80       3.010671303443e-10       5.604580226080e-14      -1.316050902399e-12       0.000000000000e+00       1.914909959752e-11       2.359063754472e-12      -8.008735632622e-15 
   81       3.048467382140e-10       5.792500391500e-14      -1.389163520190e-12       0.000000000000e+00       1.857225517113e-11       2.299127986659e-12      -7.908041248393e-15 
   82       3.086609740083e-10       5.982372828329e-14      -1.463629683907e-12       0.000000000000e+00       1.801831526832e-11       2.241443719423e-12      -7.820652089159e-15 
   83       3.125094000876e-10       6.174036630322e-14      -1.539403291255e-12       0.000000000000e+00       1.748517356581e-11       2.185814313549e-12      -7.747270817334e-15 
   84       3.163915137825e-10       6.367329688376e-14      -1.616436932801e-12       0.000000000000e+00       1.697077703181e-11       2.132046308774e-12      -7.688196804610e-15 
   85       3.203077544011e-10       6.562111391596e-14      -1.694685526983e-12       0.000000000000e+00       1.647479911586e-11       2.080110001972e-12      -7.642170770376e-15 
   86       3.242586306622e-10       6.758243456577e-14      -1.774103256601e-12       0.000000000000e+00       1.599721256452e-11       2.030002297830e-12      -7.607332955800e-15 
   87       3.282444016600e-10       6.955583087838e-14      -1.854642478014e-12       0.000000000000e+00       1.553777529068e-11       1.981697239657e-12      -7.581558866056e-15 
   88       3.322650641145e-10       7.153982961496e-14      -1.936253721890e-12       0.000000000000e+00       1.509602146604e-11       1.935145056529e-12      -7.562450600263e-15 
   89       3.363203396223e-10       7.353291208935e-14      -2.018885693955e-12       0.000000000000e+00       1.467125261361e-11       1.890271210436e-12      -7.547328181431e-15 
   90       3.404096619081e-10       7.553351400486e-14      -2.102485275745e-12       0.000000000000e+00       1.426252870016e-11       1.846975443428e-12      -7.533220886402e-15 
   91       3.445321640750e-10       7.754002529096e-14      -2.186997525359e-12       0.000000000000e+00       1.386865922871e-11       1.805130824762e-12      -7.516858575791e-15 
   92       3.486866658556e-10       7.955078994005e-14      -2.272365678206e-12       0.000000000000e+00       1.348819433098e-11       1.764582798046e-12      -7.494663023930e-15 
   93       3.528720500717e-10       8.156412784038e-14      -2.358531858693e-12       0.000000000000e+00       1.311976893751e-11       1.725187070889e-12      -7.463560157104e-15 
   94       3.570884844722e-10       8.357840438587e-14      -2.445439336081e-12       0.000000000000e+00       1.276321384753e-11       1.686931872141e-12      -7.423575339924e-15 
   95       3.613363609432e-10       8.559197108246e-14      -2.533030610877e-12       0.000000000000e+00       1.241859607252e-11       1.649832405972e-12      -7.375614206373e-15 
   96       3.656159153651e-10       8.760314462156e-14      -2.621246744497e-12       0.000000000000e+00       1.208587664144e-11       1.613893233696e-12      -7.320679094387e-15 
   97       3.699272202067e-10       8.961020701873e-14      -2.710027369781e-12       0.000000000000e+00       1.176490653989e-11       1.579107854094e-12      -7.259871644269e-15 
   98       3.742701771182e-10       9.161140575233e-14      -2.799310701498e-12       0.000000000000e+00       1.145542264920e-11       1.545458283747e-12      -7.194395397108e-15 
   99       3.786445095252e-10       9.360495390219e-14      -2.889033546861e-12       0.000000000000e+00       1.115704368555e-11       1.512914637371e-12      -7.125558393190e-15 
  100       3.830497552215e-10       9.558903028833e-14      -2.979131316030e-12       0.000000000000e+00       1.086926613906e-11       1.481434708140e-12      -7.054775770417e-15 
  101       3.874852589634e-10       9.756177960958e-14      -3.069538032631e-12       0.000000000000e+00       1.059146021295e-11       1.450963548025e-12      -6.983572362722e-15 
  102       3.919501650624e-10       9.952131258227e-14      -3.160186344255e-12       0.000000000000e+00       1.032286576258e-11       1.421433048118e-12      -6.913585298483e-15 
  103       3.964434099792e-10       1.014657060789e-13      -3.251007532978e-12       0.000000000000e+00       1.006258823464e-11       1.392761518968e-12      -6.846566598943e-15 
  104       4.009639609642e-10       1.033930526563e-13      -3.341932216978e-12       0.000000000000e+00       9.809801543165e-12       1.364872814463e-12      -6.784008895095e-15 
  105       4.055115846445e-10       1.053016164607e-13      -3.432892540718e-12       0.000000000000e+00       9.564396656137e-12       1.337757549521e-12      -6.725959399757e-15 
  106       4.100861689372e-10       1.071896987394e-13      -3.523820301595e-12       0.000000000000e+00       9.326413460711e-12       1.311419408134e-12      -6.672049818756e-15 
  107       4.146874816281e-10       1.090555910059e-13      -3.614646303137e-12       0.000000000000e+00       9.095839884804e-12       1.285856135841e-12      -6.621857400949e-15 
