# Matter power spectrum P(k) at redshift z=0
# for k=1.04427e-05 to 1.65666 h/Mpc,
# number of wavenumbers equal to 565
#    1:k (h/Mpc)              2:P (Mpc/h)^3        
       1.044266608752e-05       5.256160036521e+01 
       2.352657311951e-05       1.148077921935e+02 
       3.665747698669e-05       1.758848691904e+02 
       4.987183089099e-05       2.364912782102e+02 
       6.320670564790e-05       2.970201024408e+02 
       7.670013069277e-05       3.577640522504e+02 
       9.039144626270e-05       4.189724612359e+02 
       1.043216715767e-04       4.808745342974e+02 
       1.185338938733e-04       5.436912282645e+02 
       1.330736831984e-04       6.076424309552e+02 
       1.479895378380e-04       6.729519400322e+02 
       1.633333652077e-04       7.398513364037e+02 
       1.791610027870e-04       8.085832878961e+02 
       1.955327832299e-04       8.794045677161e+02 
       2.125141469734e-04       9.525889466121e+02 
       2.301763043515e-04       1.028430047327e+03 
       2.485969471918e-04       1.107244204568e+03 
       2.678610068604e-04       1.189373338701e+03 
       2.880614513995e-04       1.275187818821e+03 
       3.093001083776e-04       1.365089255815e+03 
       3.316884918830e-04       1.459513125138e+03 
       3.553486012859e-04       1.558931069656e+03 
       3.804136455450e-04       1.663852673565e+03 
       4.070286297204e-04       1.774826428539e+03 
       4.353507201497e-04       1.892439534931e+03 
       4.655492823051e-04       2.017316098799e+03 
       4.978054626719e-04       2.150113209893e+03 
       5.323111665859e-04       2.291514332472e+03 
       5.692672733434e-04       2.442219433448e+03 
       6.088809355606e-04       2.602931341232e+03 
       6.513618407349e-04       2.774338007343e+03 
       6.969173781075e-04       2.957090660938e+03 
       7.457467589766e-04       3.151778316675e+03 
       7.980342819281e-04       3.358899699101e+03 
       8.539421026837e-04       3.578834315218e+03 
       9.136030338576e-04       3.811815022171e+03 
       9.771140233629e-04       4.057904840780e+03 
       1.044530998864e-03       4.316980796252e+03 
       1.115865688231e-03       4.588727112881e+03 
       1.191084827708e-03       4.872639142181e+03 
       1.270111880506e-03       5.168038092206e+03 
       1.352831068644e-03       5.474095205107e+03 
       1.439093241295e-03       5.789862822825e+03 
       1.528722922196e-03       6.114309077983e+03 
       1.621525824288e-03       6.446352898884e+03 
       1.717296183098e-03       6.784896565008e+03 
       1.815823405768e-03       7.128853944074e+03 
       1.916897714114e-03       7.477173463497e+03 
       2.020314636195e-03       7.828845375546e+03 
       2.125878344591e-03       8.182933096028e+03 
       2.233403939100e-03       8.538583344788e+03 
       2.342718827904e-03       8.895007320976e+03 
       2.453663382320e-03       9.251491393227e+03 
       2.566091036792e-03       9.607394971590e+03 
       2.679867987589e-03       9.962146894837e+03 
       2.794872618857e-03       1.031524091686e+04 
       2.910994758358e-03       1.066623067441e+04 
       3.028134840877e-03       1.101472441326e+04 
       3.146203036257e-03       1.136037972359e+04 
       3.265118381925e-03       1.170289850843e+04 
       3.384807946441e-03       1.204202233504e+04 
       3.505206040574e-03       1.237752819950e+04 
       3.626253485055e-03       1.270922465925e+04 
       3.747896939005e-03       1.303694832282e+04 
       3.870088289522e-03       1.336056070202e+04 
       3.992784100581e-03       1.367994541677e+04 
       4.115945118019e-03       1.399500570974e+04 
       4.239535826564e-03       1.430566221359e+04 
       4.363524054548e-03       1.461185092755e+04 
       4.487880621846e-03       1.491352138405e+04 
       4.612579026735e-03       1.521063500586e+04 
       4.737595167583e-03       1.550316371873e+04 
       4.862907095596e-03       1.579108884528e+04 
       4.988494795155e-03       1.607439934684e+04 
       5.114339988621e-03       1.635309121750e+04 
       5.240425962794e-03       1.662716660871e+04 
       5.366737414539e-03       1.689663092289e+04 
       5.493260313332e-03       1.716149767307e+04 
       5.619981778778e-03       1.742178446650e+04 
       5.746889971336e-03       1.767751163279e+04 
       5.873973994755e-03       1.792870280792e+04 
       6.001223808829e-03       1.817538458535e+04 
       6.128630151311e-03       1.841758611487e+04 
       6.256184467933e-03       1.865533876548e+04 
       6.383878849610e-03       1.888867584414e+04 
       6.511705976013e-03       1.911763229218e+04 
       6.639659064822e-03       1.934224442693e+04 
       6.767731825999e-03       1.956254971248e+04 
       6.895918420561e-03       1.977858654392e+04 
       7.024213423340e-03       1.999039408157e+04 
       7.152611789318e-03       2.019801210803e+04 
       7.281108823148e-03       2.040148090253e+04 
       7.409700151523e-03       2.060084115789e+04 
       7.538381698113e-03       2.079613389608e+04 
       7.667149660774e-03       2.098740040556e+04 
       7.796000490837e-03       2.117468219041e+04 
       7.924930874227e-03       2.135802090409e+04 
       8.053937714261e-03       2.153745830390e+04 
       8.183018115944e-03       2.171303618948e+04 
       8.312169371614e-03       2.188479634019e+04 
       8.441388947822e-03       2.205278046378e+04 
       8.570674473306e-03       2.221703012601e+04 
       8.700023727980e-03       2.237758670670e+04 
       8.829434632826e-03       2.253449134743e+04 
       8.958905240607e-03       2.268778490997e+04 
       9.088433727343e-03       2.283750795685e+04 
       9.218018384456e-03       2.298370071986e+04 
       9.347657611545e-03       2.312640310783e+04 
       9.477349909721e-03       2.326565470051e+04 
       9.607093875469e-03       2.340149476800e+04 
       9.736888194972e-03       2.353396228110e+04 
       9.866731638875e-03       2.366309592216e+04 
       9.996623057442e-03       2.378893409486e+04 
       1.012656137608e-02       2.391151491487e+04 
       1.025654559117e-02       2.403087620988e+04 
       1.038657476628e-02       2.414705549250e+04 
       1.051664802853e-02       2.426008994776e+04 
       1.064676456537e-02       2.437001640011e+04 
       1.077692362146e-02       2.447687129169e+04 
       1.090712449586e-02       2.458069065966e+04 
       1.103736653937e-02       2.468151012202e+04 
       1.116764915210e-02       2.477936487679e+04 
       1.129797178119e-02       2.487428970951e+04 
       1.142833391868e-02       2.496631901823e+04 
       1.155873509954e-02       2.505548684345e+04 
       1.168917489987e-02       2.514182690917e+04 
       1.181965293517e-02       2.522537266090e+04 
       1.195016885876e-02       2.530615730645e+04 
       1.208072236035e-02       2.538421384604e+04 
       1.221131316460e-02       2.545957508937e+04 
       1.234194102991e-02       2.553227367775e+04 
       1.247260574723e-02       2.560234207966e+04 
       1.260330713891e-02       2.566981258271e+04 
       1.273404505777e-02       2.573471723112e+04 
       1.286481938607e-02       2.579708760511e+04 
       1.299563003469e-02       2.585695443340e+04 
       1.312647694229e-02       2.591434739420e+04 
       1.325736007457e-02       2.596929559518e+04 
       1.338827942357e-02       2.602182831729e+04 
       1.351923500702e-02       2.607197517870e+04 
       1.365022686779e-02       2.611976585006e+04 
       1.378125507329e-02       2.616523040378e+04 
       1.391231971502e-02       2.620839548115e+04 
       1.404342090809e-02       2.624929252817e+04 
       1.417455879080e-02       2.628794891196e+04 
       1.430573352430e-02       2.632439280153e+04 
       1.443694529220e-02       2.635865208669e+04 
       1.456819430031e-02       2.639075439996e+04 
       1.469948077633e-02       2.642072712845e+04 
       1.483080496965e-02       2.644859742080e+04 
       1.496216715109e-02       2.647439219258e+04 
       1.509356761275e-02       2.649813813058e+04 
       1.522500666785e-02       2.651986169632e+04 
       1.535648465060e-02       2.653958912991e+04 
       1.548800191609e-02       2.655734645350e+04 
       1.561955884020e-02       2.657315947411e+04 
       1.575115581958e-02       2.658705378613e+04 
       1.588279327159e-02       2.659905477565e+04 
       1.601447163428e-02       2.660918762311e+04 
       1.614619136644e-02       2.661747730411e+04 
       1.627795294756e-02       2.662394859457e+04 
       1.640975687798e-02       2.662862607212e+04 
       1.654160367885e-02       2.663153411876e+04 
       1.667349389232e-02       2.663269692311e+04 
       1.680542808158e-02       2.663213848275e+04 
       1.693740683100e-02       2.662988260623e+04 
       1.706943074632e-02       2.662595291523e+04 
       1.720150045472e-02       2.662037284670e+04 
       1.733361660512e-02       2.661316565459e+04 
       1.746577986825e-02       2.660435441217e+04 
       1.759799093698e-02       2.659396201272e+04 
       1.773025052647e-02       2.658201117241e+04 
       1.786255937445e-02       2.656852443166e+04 
       1.799491824149e-02       2.655352415672e+04 
       1.812732791127e-02       2.653703254082e+04 
       1.825978919087e-02       2.651907160621e+04 
       1.839230291111e-02       2.649966320485e+04 
       1.852486992686e-02       2.647882902092e+04 
       1.865749111741e-02       2.645659056982e+04 
       1.879016738682e-02       2.643296920230e+04 
       1.892289966428e-02       2.640798610245e+04 
       1.905568890456e-02       2.638166229089e+04 
       1.918853608840e-02       2.635401862533e+04 
       1.932144222293e-02       2.632507580000e+04 
       1.945440834214e-02       2.629485434930e+04 
       1.958743550736e-02       2.626337464554e+04 
       1.972052480772e-02       2.623065690164e+04 
       1.985367736068e-02       2.619672117163e+04 
       1.998689431253e-02       2.616158735018e+04 
       2.012017683896e-02       2.612527517475e+04 
       2.025352614560e-02       2.608780422451e+04 
       2.038694346863e-02       2.604919392228e+04 
       2.052043007536e-02       2.600946353475e+04 
       2.065398726485e-02       2.596863217209e+04 
       2.078761636857e-02       2.592671878889e+04 
       2.092131875107e-02       2.588374218477e+04 
       2.105509581064e-02       2.583972100394e+04 
       2.118894898004e-02       2.579467373645e+04 
       2.132287972724e-02       2.574861871839e+04 
       2.145688955617e-02       2.570157413085e+04 
       2.159098000747e-02       2.565355800171e+04 
       2.172515265936e-02       2.560458820470e+04 
       2.185940912840e-02       2.555468246036e+04 
       2.199375107039e-02       2.550385833573e+04 
       2.212818018128e-02       2.545213324441e+04 
       2.226269819799e-02       2.539952444685e+04 
       2.239730689944e-02       2.534604905024e+04 
       2.253200810750e-02       2.529172400893e+04 
       2.266680368794e-02       2.523656612458e+04 
       2.280169555154e-02       2.518059204436e+04 
       2.293668565507e-02       2.512381826357e+04 
       2.307177600247e-02       2.506626112442e+04 
       2.320696864592e-02       2.500793681589e+04 
       2.334226568702e-02       2.494886137316e+04 
       2.347766927801e-02       2.488905067920e+04 
       2.361318162299e-02       2.482852046275e+04 
       2.374880497923e-02       2.476728630064e+04 
       2.388454165844e-02       2.470536361408e+04 
       2.402039402818e-02       2.464276767237e+04 
       2.415636451324e-02       2.457951359105e+04 
       2.429245559709e-02       2.451561633182e+04 
       2.442866982338e-02       2.445109070209e+04 
       2.456500979748e-02       2.438595135550e+04 
       2.470147818809e-02       2.432021279164e+04 
       2.483807772885e-02       2.425388935636e+04 
       2.497481122007e-02       2.418699524054e+04 
       2.511168153046e-02       2.411954448112e+04 
       2.524869159896e-02       2.405155095943e+04 
       2.538584443658e-02       2.398302840312e+04 
       2.552314312836e-02       2.391399038496e+04 
       2.566059083536e-02       2.384445032192e+04 
       2.579819079671e-02       2.377442147582e+04 
       2.593594633174e-02       2.370391695469e+04 
       2.607386084219e-02       2.363294970997e+04 
       2.621193781449e-02       2.356153253619e+04 
       2.635018082210e-02       2.348967807450e+04 
       2.648859352797e-02       2.341739880943e+04 
       2.662717968703e-02       2.334470706915e+04 
       2.676594314880e-02       2.327161502595e+04 
       2.690488786012e-02       2.319813469633e+04 
       2.704401786790e-02       2.312427794016e+04 
       2.718333732204e-02       2.305005646002e+04 
       2.732285047840e-02       2.297548180311e+04 
       2.746256170195e-02       2.290056535969e+04 
       2.760247546989e-02       2.282531836212e+04 
       2.774259637508e-02       2.274975188694e+04 
       2.788292912943e-02       2.267387685350e+04 
       2.802347856750e-02       2.259770402333e+04 
       2.816424965019e-02       2.252124400111e+04 
       2.830524746863e-02       2.244450723426e+04 
       2.844647724813e-02       2.236750401199e+04 
       2.858794435235e-02       2.229024446669e+04 
       2.872965428758e-02       2.221273857251e+04 
       2.887161270725e-02       2.213499614554e+04 
       2.901382541653e-02       2.205702684475e+04 
       2.915629837718e-02       2.197884017016e+04 
       2.929903771255e-02       2.190044546336e+04 
       2.944204971277e-02       2.182185190897e+04 
       2.958534084023e-02       2.174306853183e+04 
       2.972891773516e-02       2.166410419850e+04 
       2.987278722153e-02       2.158496761729e+04 
       3.001695631313e-02       2.150566733709e+04 
       3.016143221994e-02       2.142621174836e+04 
       3.030622235479e-02       2.134660908108e+04 
       3.045133434019e-02       2.126686740818e+04 
       3.059677601558e-02       2.118699464136e+04 
       3.074255544481e-02       2.110699853246e+04 
       3.088868092398e-02       2.102688667463e+04 
       3.103516098955e-02       2.094666650011e+04 
       3.118200442694e-02       2.086634528172e+04 
       3.132922027935e-02       2.078593013030e+04 
       3.147681785711e-02       2.070542799680e+04 
       3.162480674735e-02       2.062484567116e+04 
       3.177319682420e-02       2.054418978165e+04 
       3.192199825933e-02       2.046346679470e+04 
       3.207122153315e-02       2.038268301507e+04 
       3.222087744636e-02       2.030184458457e+04 
       3.237097713215e-02       2.022095748271e+04 
       3.252153206897e-02       2.014002752457e+04 
       3.267255409385e-02       2.005906036366e+04 
       3.282405541645e-02       1.997806148646e+04 
       3.297604863373e-02       1.989703621609e+04 
       3.312854674541e-02       1.981598971065e+04 
       3.328156317008e-02       1.973492696082e+04 
       3.343511176230e-02       1.965385279176e+04 
       3.358920683043e-02       1.957277185951e+04 
       3.374386315538e-02       1.949168865317e+04 
       3.389909601048e-02       1.941060749201e+04 
       3.405492118216e-02       1.932953252543e+04 
       3.421135499198e-02       1.924846773088e+04 
       3.436841431961e-02       1.916741691334e+04 
       3.452611662722e-02       1.908638370650e+04 
       3.468447998512e-02       1.900537156578e+04 
       3.484352309888e-02       1.892438377436e+04 
       3.500326533788e-02       1.884342343361e+04 
       3.516372676556e-02       1.876249347020e+04 
       3.532492817137e-02       1.868159662639e+04 
       3.548689110453e-02       1.860073546404e+04 
       3.564963790985e-02       1.851991235920e+04 
       3.581319176562e-02       1.843912950161e+04 
       3.597757672372e-02       1.835838889450e+04 
       3.614281775228e-02       1.827769234397e+04 
       3.630894078082e-02       1.819704146732e+04 
       3.647597274834e-02       1.811643768473e+04 
       3.664394165429e-02       1.803588221553e+04 
       3.681287661287e-02       1.795537607582e+04 
       3.698280791083e-02       1.787492007753e+04 
       3.715376706893e-02       1.779451482052e+04 
       3.732578690764e-02       1.771416069432e+04 
       3.749890161706e-02       1.763385786588e+04 
       3.767314683171e-02       1.755360628282e+04 
       3.784855971035e-02       1.747340566610e+04 
       3.802517902147e-02       1.739325550174e+04 
       3.820304523470e-02       1.731315503869e+04 
       3.838220061881e-02       1.723310328158e+04 
       3.856268934684e-02       1.715309898551e+04 
       3.874455760892e-02       1.707314064720e+04 
       3.892785373351e-02       1.699322649877e+04 
       3.911262831783e-02       1.691335449515e+04 
       3.929893436830e-02       1.683352231651e+04 
       3.948682745192e-02       1.675372734590e+04 
       3.967636585960e-02       1.667396666697e+04 
       3.986761078265e-02       1.659423705238e+04 
       4.006062650366e-02       1.651453494899e+04 
       4.025548060312e-02       1.643485646562e+04 
       4.045224418353e-02       1.635519736222e+04 
       4.065099211257e-02       1.627555303244e+04 
       4.085180328751e-02       1.619591848666e+04 
       4.105476092293e-02       1.611628833542e+04 
       4.125995286425e-02       1.603665677109e+04 
       4.146747193002e-02       1.595701754592e+04 
       4.167741628600e-02       1.587736394634e+04 
       4.188988985459e-02       1.579768877362e+04 
       4.210500276382e-02       1.571798431263e+04 
       4.232287184029e-02       1.563824230280e+04 
       4.254362115151e-02       1.555845390483e+04 
       4.276738260330e-02       1.547860966510e+04 
       4.299429659941e-02       1.539869947761e+04 
       4.322451277074e-02       1.531871253619e+04 
       4.345819078347e-02       1.523863728796e+04 
       4.369550123603e-02       1.515846138173e+04 
       4.393662665702e-02       1.507817160493e+04 
       4.418176261762e-02       1.499775381869e+04 
       4.443111897432e-02       1.491719288319e+04 
       4.468492126061e-02       1.483647257533e+04 
       4.494341224900e-02       1.475557549300e+04 
       4.520685370858e-02       1.467448295281e+04 
       4.547552838771e-02       1.459317487119e+04 
       4.574974225653e-02       1.451162962498e+04 
       4.602982705049e-02       1.442982390332e+04 
       4.631614316349e-02       1.434773253136e+04 
       4.660908294859e-02       1.426532826389e+04 
       4.690907449542e-02       1.418258156087e+04 
       4.721658596722e-02       1.409946031264e+04 
       4.753213059713e-02       1.401592952914e+04 
       4.785627246428e-02       1.393195097522e+04 
       4.818963319563e-02       1.384748273593e+04 
       4.853289977177e-02       1.376247871034e+04 
       4.888683365411e-02       1.367688800251e+04 
       4.925228150117e-02       1.359065419208e+04 
       4.963018780395e-02       1.350371445531e+04 
       5.002160984951e-02       1.341599849395e+04 
       5.042773552190e-02       1.332742722269e+04 
       5.084990457678e-02       1.323791114376e+04 
       5.128963418793e-02       1.314734832182e+04 
       5.174864977013e-02       1.305562183263e+04 
       5.222892234603e-02       1.296259651939e+04 
       5.273271405856e-02       1.286811482410e+04 
       5.326263385259e-02       1.277199138226e+04 
       5.382170587554e-02       1.267400592371e+04 
       5.441345378958e-02       1.257389386204e+04 
       5.504200494206e-02       1.247133365435e+04 
       5.571221916406e-02       1.236592967618e+04 
       5.642984772669e-02       1.225718872001e+04 
       5.720172836795e-02       1.214448748716e+04 
       5.803602163362e-02       1.202702724231e+04 
       5.894249067940e-02       1.190377028465e+04 
       5.993281851691e-02       1.177335102248e+04 
       6.102093865725e-02       1.163395267677e+04 
       6.222331925300e-02       1.148314049296e+04 
       6.355907598868e-02       1.131764767416e+04 
