# dimensionless total [l(l+1)/2pi] C_l's
# for l=2 to 2500, i.e. number of multipoles equal to 2499
#
# -> if you prefer output in CAMB/HealPix/LensPix units/order, set 'format' to 'camb' in input file
# -> if you don't want to see such a header, set 'headers' to 'no' in input file
# -> for CMB lensing (phi), these are C_l^phi-phi for the lensing potential.
#    Remember the conversion factors:
#    C_l^dd (deflection) = l(l+1) C_l^phi-phi
#    C_l^gg (shear/convergence) = 1/4 (l(l+1))^2 C_l^phi-phi
#
# 1:l     2:TT                     3:EE                     4:TE                     5:BB                     6:phiphi                 7:TPhi                   8:Ephi               
    2       1.482093137281e-10       4.419003055113e-15       3.765882948259e-13       0.000000000000e+00       8.828252211028e-09       4.818661852094e-10      -1.967917641162e-12 
    3       1.401132053034e-10       5.665119596948e-15       4.221023368966e-13       0.000000000000e+00       5.424566142184e-09       3.417536642803e-10      -1.490647003007e-12 
    4       1.324742022825e-10       4.899588947432e-15       3.936256862615e-13       0.000000000000e+00       3.770202614881e-09       2.588165197320e-10      -9.768863755276e-13 
    5       1.267373655462e-10       3.260970358612e-15       3.338883061326e-13       0.000000000000e+00       2.814204194014e-09       2.044479607838e-10      -5.442443959693e-13 
    6       1.227804733811e-10       1.808088519184e-15       2.672571844508e-13       0.000000000000e+00       2.198548606059e-09       1.663459963157e-10      -2.250233095463e-13 
    7       1.201731489409e-10       9.578682745833e-16       2.078075196887e-13       0.000000000000e+00       1.774116118036e-09       1.383658554820e-10      -2.075320566208e-14 
    8       1.186223618876e-10       6.030585309120e-16       1.616938898367e-13       0.000000000000e+00       1.466642300771e-09       1.171441896578e-10       8.425789963234e-14 
    9       1.178638910573e-10       4.778288887571e-16       1.302912235980e-13       0.000000000000e+00       1.235224317350e-09       1.006898274796e-10       1.145763134432e-13 
   10       1.176449891381e-10       4.039324303983e-16       1.122346801098e-13       0.000000000000e+00       1.055793645385e-09       8.766948174889e-11       9.749977426737e-14 
   11       1.179100778755e-10       3.339601431412e-16       1.047236545936e-13       0.000000000000e+00       8.901597532395e-10       7.748508044098e-11       5.854306399988e-14 
   12       1.184885947706e-10       2.830759903234e-16       1.045439404359e-13       0.000000000000e+00       7.778867114586e-10       6.849340257450e-11       1.645716568678e-14 
   13       1.193296265885e-10       2.631053017427e-16       1.088583312115e-13       0.000000000000e+00       6.857144808297e-10       6.119905531380e-11      -1.598770560508e-14 
   14       1.203900004048e-10       2.659582308703e-16       1.155240924031e-13       0.000000000000e+00       6.090243661474e-10       5.486930321963e-11      -3.401081871677e-14 
   15       1.216486708937e-10       2.790056591758e-16       1.231517186125e-13       0.000000000000e+00       5.444664938234e-10       4.953718240256e-11      -3.771473783312e-14 
   16       1.230183269308e-10       2.991256866280e-16       1.310421013104e-13       0.000000000000e+00       4.895734632711e-10       4.493510114589e-11      -3.112065081813e-14 
   17       1.245385414859e-10       3.318322522998e-16       1.389954558863e-13       0.000000000000e+00       4.424811580235e-10       4.091489998565e-11      -1.966890081405e-14 
   18       1.261385875203e-10       3.829091011189e-16       1.471934352486e-13       0.000000000000e+00       4.016046997317e-10       3.741812600417e-11      -8.559601752471e-15 
   19       1.278305309319e-10       4.529516887693e-16       1.558740401131e-13       0.000000000000e+00       3.662964922736e-10       3.438997746074e-11      -6.059776775006e-16 
   20       1.296088165533e-10       5.401442348045e-16       1.652402923971e-13       0.000000000000e+00       3.351963553888e-10       3.169554205479e-11       2.299152507047e-15 
   21       1.314726678075e-10       6.434876197332e-16       1.752907535353e-13       0.000000000000e+00       3.078165075510e-10       2.928591548464e-11       7.047606305092e-16 
   22       1.333908032875e-10       7.619856447299e-16       1.858626855522e-13       0.000000000000e+00       2.835026500633e-10       2.710604981622e-11      -3.584606559704e-15 
   23       1.353709946995e-10       8.958818353129e-16       1.965602958804e-13       0.000000000000e+00       2.619211325255e-10       2.515248724322e-11      -8.752034835634e-15 
   24       1.374101417632e-10       1.045600481544e-15       2.068810266212e-13       0.000000000000e+00       2.425736823342e-10       2.341213876545e-11      -1.285122294525e-14 
   25       1.395070709719e-10       1.211035124722e-15       2.165843129834e-13       0.000000000000e+00       2.252331305927e-10       2.185688437898e-11      -1.499773200702e-14 
   26       1.416451164038e-10       1.392140202168e-15       2.255026438383e-13       0.000000000000e+00       2.095859802504e-10       2.043976231426e-11      -1.481403835897e-14 
   27       1.438219880923e-10       1.590742115716e-15       2.334858962664e-13       0.000000000000e+00       1.954448225240e-10       1.914655871609e-11      -1.289848461491e-14 
   28       1.460301985419e-10       1.809247889761e-15       2.404235163389e-13       0.000000000000e+00       1.825661693442e-10       1.796458410834e-11      -1.025215249516e-14 
   29       1.482791464714e-10       2.049062835668e-15       2.463788461346e-13       0.000000000000e+00       1.708845014807e-10       1.689123392520e-11      -7.552938822329e-15 
   30       1.505710393714e-10       2.311287887591e-15       2.515120520408e-13       0.000000000000e+00       1.602746486576e-10       1.591680520064e-11      -5.503012704912e-15 
   31       1.528968800501e-10       2.596972180717e-15       2.559886680084e-13       0.000000000000e+00       1.505204995117e-10       1.502242995203e-11      -4.760573117167e-15 
   32       1.552601250422e-10       2.906987323114e-15       2.597646502266e-13       0.000000000000e+00       1.415718374733e-10       1.419970673266e-11      -5.177886681854e-15 
   33       1.576590428512e-10       3.242093438200e-15       2.627201211506e-13       0.000000000000e+00       1.333655039492e-10       1.343660043936e-11      -6.265641433952e-15 
   34       1.600843603962e-10       3.603006546953e-15       2.647192238887e-13       0.000000000000e+00       1.257868041179e-10       1.271750678459e-11      -7.465846246004e-15 
   35       1.625375844831e-10       3.990548641819e-15       2.656317625261e-13       0.000000000000e+00       1.187970516892e-10       1.204434887035e-11      -8.459347861867e-15 
   36       1.650172206441e-10       4.405541665378e-15       2.653167460064e-13       0.000000000000e+00       1.123402776080e-10       1.142205396735e-11      -8.956152525739e-15 
   37       1.675173741232e-10       4.848772572540e-15       2.636426267989e-13       0.000000000000e+00       1.063325759468e-10       1.085236875900e-11      -8.712120952068e-15 
   38       1.700428122923e-10       5.321022348946e-15       2.605805899219e-13       0.000000000000e+00       1.007585097004e-10       1.033280373942e-11      -7.876272610592e-15 
   39       1.725976630016e-10       5.823040829740e-15       2.561425311236e-13       0.000000000000e+00       9.560047735036e-11       9.856767869020e-12      -6.761769299903e-15 
   40       1.751806324323e-10       6.355534921228e-15       2.503574414782e-13       0.000000000000e+00       9.080938612858e-11       9.413408894411e-12      -5.759415576232e-15 
   41       1.777875143445e-10       6.919184708969e-15       2.432568113296e-13       0.000000000000e+00       8.632177395852e-11       8.990940886287e-12      -5.236905197026e-15 
   42       1.804211097703e-10       7.514705626581e-15       2.348225779362e-13       0.000000000000e+00       8.212448379991e-11       8.588759350888e-12      -5.185007749163e-15 
   43       1.830835496012e-10       8.142801247144e-15       2.250240181741e-13       0.000000000000e+00       7.820641836629e-11       8.208689056719e-12      -5.464680115677e-15 
   44       1.857731109725e-10       8.804144006472e-15       2.138319272163e-13       0.000000000000e+00       7.453913128499e-11       7.851560768847e-12      -5.900718929096e-15 
   45       1.884862135275e-10       9.499362788081e-15       2.012154127888e-13       0.000000000000e+00       7.108699935254e-11       7.517304844296e-12      -6.319513214396e-15 
   46       1.912250013050e-10       1.022900554937e-14       1.871311795409e-13       0.000000000000e+00       6.784462105182e-11       7.205483652943e-12      -6.681047692781e-15 
   47       1.939913912880e-10       1.099356242013e-14       1.715310090246e-13       0.000000000000e+00       6.480824889660e-11       6.914760773522e-12      -6.982547326848e-15 
   48       1.967846685247e-10       1.179347295356e-14       1.543644712967e-13       0.000000000000e+00       6.196450900062e-11       6.642648820434e-12      -7.221966009705e-15 
   49       1.996012486007e-10       1.262912369271e-14       1.355787225124e-13       0.000000000000e+00       5.928968506162e-11       6.385427544925e-12      -7.398046675396e-15 
   50       2.024368469766e-10       1.350084594224e-14       1.151231146797e-13       0.000000000000e+00       5.675686695634e-11       6.139201939674e-12      -7.514381091144e-15 
   51       2.052942322528e-10       1.440891401660e-14       9.296496962299e-14       0.000000000000e+00       5.436134523295e-11       5.903605151262e-12      -7.592748911434e-15 
   52       2.081771668588e-10       1.535354230975e-14       6.907773681213e-14       0.000000000000e+00       5.210087198906e-11       5.678959114310e-12      -7.663503263927e-15 
   53       2.110880628112e-10       1.633488268191e-14       4.343657890200e-14       0.000000000000e+00       4.996806100810e-11       5.465194814390e-12      -7.762129961917e-15 
   54       2.140278574495e-10       1.735302203561e-14       1.601839578102e-14       0.000000000000e+00       4.795004184267e-11       5.261824036426e-12      -7.929495835075e-15 
   55       2.169966640241e-10       1.840802354547e-14      -1.319670653863e-14       0.000000000000e+00       4.603238973678e-11       5.068182194447e-12      -8.199570854323e-15 
   56       2.199961973975e-10       1.950006789464e-14      -4.422063703022e-14       0.000000000000e+00       4.421285110607e-11       4.884292184061e-12      -8.558453857819e-15 
   57       2.230277332816e-10       2.062934287882e-14      -7.706086924102e-14       0.000000000000e+00       4.249042186143e-11       4.710165644588e-12      -8.975602906469e-15 
   58       2.260912941556e-10       2.179600211933e-14      -1.117217035278e-13       0.000000000000e+00       4.086119488521e-11       4.545533374650e-12      -9.415235191462e-15 
   59       2.291855551913e-10       2.300016433993e-14      -1.482041867158e-13       0.000000000000e+00       3.931818070577e-11       4.389827642185e-12      -9.836087331015e-15 
   60       2.323077501786e-10       2.424191264375e-14      -1.865060317571e-13       0.000000000000e+00       3.785112817197e-11       4.242164494459e-12      -1.019117566713e-14 
   61       2.354549778990e-10       2.552121402758e-14      -2.266223587790e-13       0.000000000000e+00       3.644937294718e-11       4.101589892207e-12      -1.043856576774e-14 
   62       2.386286767269e-10       2.683765844969e-14      -2.685482943562e-13       0.000000000000e+00       3.511153582446e-11       3.967922691794e-12      -1.057704800009e-14 
   63       2.418309920344e-10       2.819065964327e-14      -3.122768157613e-13       0.000000000000e+00       3.383769299303e-11       3.841070349372e-12      -1.061808080827e-14 
   64       2.450634157146e-10       2.957952652131e-14      -3.577979278549e-13       0.000000000000e+00       3.262645870578e-11       3.720772659104e-12      -1.057559556771e-14 
   65       2.483267365423e-10       3.100345992265e-14      -4.050986088066e-13       0.000000000000e+00       3.147490202416e-11       3.606592434112e-12      -1.046610619568e-14 
   66       2.516209905346e-10       3.246154935810e-14      -4.541627558158e-13       0.000000000000e+00       3.037846356314e-11       3.497906187437e-12      -1.030881876186e-14 
   67       2.549454113113e-10       3.395276975648e-14      -5.049711308325e-13       0.000000000000e+00       2.933087223614e-11       3.393894812985e-12      -1.012574109879e-14 
   68       2.582991012970e-10       3.547610911349e-14      -5.575035427784e-13       0.000000000000e+00       2.832582114038e-11       3.293753582664e-12      -9.937450860528e-15 
   69       2.616833142151e-10       3.703098874670e-14      -6.117460290046e-13       0.000000000000e+00       2.736257563849e-11       3.197392379679e-12      -9.749158935820e-15 
   70       2.650995480376e-10       3.861692274103e-14      -6.676850381628e-13       0.000000000000e+00       2.644135727996e-11       3.104861261709e-12      -9.562006049768e-15 
   71       2.685488344213e-10       4.023339467277e-14      -7.253053253242e-13       0.000000000000e+00       2.556164762578e-11       3.016140055287e-12      -9.377153055555e-15 
   72       2.720317075037e-10       4.187985770355e-14      -7.845899548994e-13       0.000000000000e+00       2.472214998417e-11       2.931134645863e-12      -9.195779507827e-15 
   73       2.755481726995e-10       4.355573467432e-14      -8.455203035596e-13       0.000000000000e+00       2.392075114637e-11       2.849673267866e-12      -9.019082236070e-15 
   74       2.790976754975e-10       4.526041819933e-14      -9.080760631560e-13       0.000000000000e+00       2.315448312229e-11       2.771502794766e-12      -8.848273917992e-15 
   75       2.826790702565e-10       4.699327076011e-14      -9.722352436407e-13       0.000000000000e+00       2.241948487635e-11       2.696285029138e-12      -8.684581652900e-15 
   76       2.862912256099e-10       4.875355358630e-14      -1.037973131641e-12       0.000000000000e+00       2.171196128737e-11       2.623685730715e-12      -8.529188432779e-15 
   77       2.899350371084e-10       5.054019811793e-14      -1.105258940482e-12       0.000000000000e+00       2.103134649900e-11       2.553668644223e-12      -8.383048387225e-15 
   78       2.936117266070e-10       5.235199284530e-14      -1.174058551744e-12       0.000000000000e+00       2.037765058319e-11       2.486248597837e-12      -8.247035099123e-15 
   79       2.973222203607e-10       5.418764948080e-14      -1.244335487224e-12       0.000000000000e+00       1.975049596354e-11       2.421401742789e-12      -8.121993162563e-15 
   80       3.010671308746e-10       5.604580159257e-14      -1.316050890437e-12       0.000000000000e+00       1.914909960003e-11       2.359063745091e-12      -8.008735585295e-15 
   81       3.048467387554e-10       5.792500323824e-14      -1.389163508124e-12       0.000000000000e+00       1.857225517358e-11       2.299127977269e-12      -7.908041191172e-15 
   82       3.086609745609e-10       5.982372759855e-14      -1.463629671753e-12       0.000000000000e+00       1.801831527069e-11       2.241443710093e-12      -7.820652022607e-15 
   83       3.125094006515e-10       6.174036561116e-14      -1.539403279030e-12       0.000000000000e+00       1.748517356812e-11       2.185814304305e-12      -7.747270743021e-15 
   84       3.163915143579e-10       6.367329618507e-14      -1.616436920524e-12       0.000000000000e+00       1.697077703405e-11       2.132046299610e-12      -7.688196724971e-15 
   85       3.203077549881e-10       6.562111321136e-14      -1.694685514673e-12       0.000000000000e+00       1.647479911804e-11       2.080109992897e-12      -7.642170687851e-15 
   86       3.242586312610e-10       6.758243385601e-14      -1.774103244278e-12       0.000000000000e+00       1.599721256665e-11       2.030002288886e-12      -7.607332872582e-15 
   87       3.282444022707e-10       6.955583016421e-14      -1.854642465698e-12       0.000000000000e+00       1.553777529275e-11       1.981697230918e-12      -7.581558784053e-15 
   88       3.322650647371e-10       7.153982889712e-14      -1.936253709601e-12       0.000000000000e+00       1.509602146805e-11       1.935145048107e-12      -7.562450521063e-15 
   89       3.363203402571e-10       7.353291136860e-14      -2.018885681713e-12       0.000000000000e+00       1.467125261557e-11       1.890271202483e-12      -7.547328106263e-15 
   90       3.404096625553e-10       7.553351328197e-14      -2.102485263570e-12       0.000000000000e+00       1.426252870208e-11       1.846975436140e-12      -7.533220816098e-15 
   91       3.445321647347e-10       7.754002456669e-14      -2.186997513270e-12       0.000000000000e+00       1.386865923058e-11       1.805130818380e-12      -7.516858510744e-15 
   92       3.486866665280e-10       7.955078921515e-14      -2.272365666224e-12       0.000000000000e+00       1.348819433280e-11       1.764582792862e-12      -7.494662964053e-15 
   93       3.528720507569e-10       8.156412711562e-14      -2.358531846838e-12       0.000000000000e+00       1.311976893928e-11       1.725187067230e-12      -7.463560101888e-15 
   94       3.570884851705e-10       8.357840366202e-14      -2.445439324372e-12       0.000000000000e+00       1.276321384926e-11       1.686931870297e-12      -7.423575288799e-15 
   95       3.613363616547e-10       8.559197036029e-14      -2.533030599333e-12       0.000000000000e+00       1.241859607420e-11       1.649832406174e-12      -7.375614158811e-15 
   96       3.656159160900e-10       8.760314390188e-14      -2.621246733138e-12       0.000000000000e+00       1.208587664307e-11       1.613893236110e-12      -7.320679049907e-15 
   97       3.699272209452e-10       8.961020630233e-14      -2.710027358627e-12       0.000000000000e+00       1.176490654148e-11       1.579107858813e-12      -7.259871602445e-15 
   98       3.742701778703e-10       9.161140504003e-14      -2.799310690570e-12       0.000000000000e+00       1.145542265075e-11       1.545458290788e-12      -7.194395357574e-15 
   99       3.786445102910e-10       9.360495319482e-14      -2.889033536179e-12       0.000000000000e+00       1.115704368705e-11       1.512914646664e-12      -7.125558355648e-15 
  100       3.830497560011e-10       9.558902958671e-14      -2.979131305614e-12       0.000000000000e+00       1.086926614053e-11       1.481434719527e-12      -7.054775734645e-15 
  101       3.874852597568e-10       9.756177891455e-14      -3.069538022501e-12       0.000000000000e+00       1.059146021437e-11       1.450963561248e-12      -6.983572328580e-15 
  102       3.919501658696e-10       9.952131189468e-14      -3.160186334431e-12       0.000000000000e+00       1.032286576397e-11       1.421433062815e-12      -6.913585265922e-15 
  103       3.964434108003e-10       1.014657053996e-13      -3.251007523480e-12       0.000000000000e+00       1.006258823598e-11       1.392761534665e-12      -6.846566568010e-15 
  104       4.009639617990e-10       1.033930519862e-13      -3.341932207826e-12       0.000000000000e+00       9.809801544474e-12       1.364872830595e-12      -6.784008865923e-15 
  105       4.055115854929e-10       1.053016158005e-13      -3.432892531931e-12       0.000000000000e+00       9.564396657411e-12       1.337757565546e-12      -6.725959372486e-15 
  106       4.100861697994e-10       1.071896980900e-13      -3.523820293194e-12       0.000000000000e+00       9.326413461951e-12       1.311419423565e-12      -6.672049793514e-15 
  107       4.146874825039e-10       1.090555903682e-13      -3.614646295140e-12       0.000000000000e+00       9.095839886012e-12       1.285856150253e-12      -6.621857377847e-15 
