# Matter power spectrum P(k) at redshift z=0
# for k=1.04427e-05 to 1.65666 h/Mpc,
# number of wavenumbers equal to 565
#    1:k (h/Mpc)              2:P (Mpc/h)^3        
       1.044266608752e-05       5.256160036521e+01 
       2.352657315895e-05       1.148077923786e+02 
       3.665747706590e-05       1.758848695560e+02 
       4.987183101065e-05       2.364912787559e+02 
       6.320670580900e-05       2.970201031688e+02 
       7.670013089668e-05       3.577640531650e+02 
       9.039144651115e-05       4.189724623430e+02 
       1.043216718718e-04       4.808745356051e+02 
       1.185338942176e-04       5.436912297825e+02 
       1.330736835950e-04       6.076424326952e+02 
       1.479895382904e-04       6.729519420082e+02 
       1.633333657199e-04       7.398513386320e+02 
       1.791610033638e-04       8.085832903953e+02 
       1.955327838767e-04       8.794045705079e+02 
       2.125141476964e-04       9.525889497210e+02 
       2.301763051577e-04       1.028430050781e+03 
       2.485969480894e-04       1.107244208399e+03 
       2.678610078583e-04       1.189373342945e+03 
       2.880614525082e-04       1.275187823519e+03 
       3.093001096088e-04       1.365089261014e+03 
       3.316884932500e-04       1.459513130888e+03 
       3.553486028037e-04       1.558931076016e+03 
       3.804136472303e-04       1.663852680599e+03 
       4.070286315921e-04       1.774826436319e+03 
       4.353507222288e-04       1.892439543538e+03 
       4.655492846150e-04       2.017316108318e+03 
       4.978054652383e-04       2.150113220421e+03 
       5.323111694371e-04       2.291514344111e+03 
       5.692672765099e-04       2.442219446307e+03 
       6.088809390752e-04       2.602931355427e+03 
       6.513618446322e-04       2.774338022993e+03 
       6.969173824235e-04       2.957090678163e+03 
       7.457467637482e-04       3.151778335595e+03 
       7.980342871919e-04       3.358899719828e+03 
       8.539421084753e-04       3.578834337856e+03 
       9.136030402108e-04       3.811815046809e+03 
       9.771140303084e-04       4.057904867492e+03 
       1.044531006428e-03       4.316980825088e+03 
       1.115865696436e-03       4.588727143870e+03 
       1.191084836572e-03       4.872639175327e+03 
       1.270111890040e-03       5.168038127487e+03 
       1.352831078853e-03       5.474095242479e+03 
       1.439093252183e-03       5.789862862223e+03 
       1.528722933759e-03       6.114309119326e+03 
       1.621525836520e-03       6.446352942078e+03 
       1.717296195989e-03       6.784896609949e+03 
       1.815823419308e-03       7.128853990650e+03 
       1.916897728290e-03       7.477173511595e+03 
       2.020314650993e-03       7.828845425050e+03 
       2.125878359998e-03       8.182933146829e+03 
       2.233403955102e-03       8.538583396777e+03 
       2.342718844487e-03       8.895007374051e+03 
       2.453663399471e-03       9.251491447290e+03 
       2.566091054498e-03       9.607395026549e+03 
       2.679868005840e-03       9.962146950608e+03 
       2.794872637642e-03       1.031524097337e+04 
       2.910994777665e-03       1.066623073158e+04 
       3.028134860697e-03       1.101472447102e+04 
       3.146203056583e-03       1.136037978189e+04 
       3.265118402747e-03       1.170289856721e+04 
       3.384807967753e-03       1.204202239425e+04 
       3.505206062369e-03       1.237752825910e+04 
       3.626253507326e-03       1.270922471920e+04 
       3.747896961748e-03       1.303694838309e+04 
       3.870088312730e-03       1.336056076258e+04 
       3.992784124251e-03       1.367994547759e+04 
       4.115945142146e-03       1.399500577080e+04 
       4.239535851144e-03       1.430566227488e+04 
       4.363524079577e-03       1.461185098905e+04 
       4.487880647321e-03       1.491352144574e+04 
       4.612579052652e-03       1.521063506775e+04 
       4.737595193940e-03       1.550316378081e+04 
       4.862907122390e-03       1.579108890754e+04 
       4.988494822385e-03       1.607439940929e+04 
       5.114340016282e-03       1.635309128013e+04 
       5.240425990886e-03       1.662716667152e+04 
       5.366737443059e-03       1.689663098591e+04 
       5.493260342280e-03       1.716149773628e+04 
       5.619981808150e-03       1.742178452993e+04 
       5.746890001132e-03       1.767751169645e+04 
       5.873974024974e-03       1.792870287182e+04 
       6.001223839468e-03       1.817538464950e+04 
       6.128630182370e-03       1.841758617930e+04 
       6.256184499411e-03       1.865533883019e+04 
       6.383878881505e-03       1.888867590915e+04 
       6.511706008325e-03       1.911763235752e+04 
       6.639659097549e-03       1.934224449262e+04 
       6.767731859141e-03       1.956254977853e+04 
       6.895918454117e-03       1.977858661036e+04 
       7.024213457309e-03       1.999039414842e+04 
       7.152611823700e-03       2.019801217531e+04 
       7.281108857941e-03       2.040148097026e+04 
       7.409700186727e-03       2.060084122609e+04 
       7.538381733727e-03       2.079613396479e+04 
       7.667149696799e-03       2.098740047480e+04 
       7.796000527271e-03       2.117468226020e+04 
       7.924930911070e-03       2.135802097445e+04 
       8.053937751513e-03       2.153745837485e+04 
       8.183018153603e-03       2.171303626106e+04 
       8.312169409682e-03       2.188479641242e+04 
       8.441388986296e-03       2.205278053668e+04 
       8.570674512188e-03       2.221703019960e+04 
       8.700023767269e-03       2.237758678101e+04 
       8.829434672520e-03       2.253449142249e+04 
       8.958905280708e-03       2.268778498579e+04 
       9.088433767850e-03       2.283750803346e+04 
       9.218018425369e-03       2.298370079728e+04 
       9.347657652862e-03       2.312640318608e+04 
       9.477349951444e-03       2.326565477962e+04 
       9.607093917596e-03       2.340149484798e+04 
       9.736888237504e-03       2.353396236198e+04 
       9.866731681812e-03       2.366309600396e+04 
       9.996623100783e-03       2.378893417759e+04 
       1.012656141982e-02       2.391151499856e+04 
       1.025654563532e-02       2.403087629454e+04 
       1.038657481083e-02       2.414705557816e+04 
       1.051664807349e-02       2.426009003442e+04 
       1.064676461073e-02       2.437001648780e+04 
       1.077692366723e-02       2.447687138043e+04 
       1.090712454203e-02       2.458069074944e+04 
       1.103736658594e-02       2.468151021287e+04 
       1.116764919908e-02       2.477936496873e+04 
       1.129797182857e-02       2.487428980254e+04 
       1.142833396646e-02       2.496631911236e+04 
       1.155873514772e-02       2.505548693870e+04 
       1.168917494845e-02       2.514182700555e+04 
       1.181965298415e-02       2.522537275842e+04 
       1.195016890815e-02       2.530615740511e+04 
       1.208072241014e-02       2.538421394586e+04 
       1.221131321480e-02       2.545957519034e+04 
       1.234194108051e-02       2.553227377988e+04 
       1.247260579823e-02       2.560234218296e+04 
       1.260330719032e-02       2.566981268718e+04 
       1.273404510958e-02       2.573471733678e+04 
       1.286481943828e-02       2.579708771194e+04 
       1.299563008730e-02       2.585695454141e+04 
       1.312647699531e-02       2.591434750340e+04 
       1.325736012799e-02       2.596929570555e+04 
       1.338827947739e-02       2.602182842884e+04 
       1.351923506125e-02       2.607197529142e+04 
       1.365022692242e-02       2.611976596396e+04 
       1.378125512832e-02       2.616523051884e+04 
       1.391231977046e-02       2.620839559739e+04 
       1.404342096392e-02       2.624929264556e+04 
       1.417455884704e-02       2.628794903049e+04 
       1.430573358094e-02       2.632439292121e+04 
       1.443694534924e-02       2.635865220751e+04 
       1.456819435775e-02       2.639075452191e+04 
       1.469948083418e-02       2.642072725152e+04 
       1.483080502790e-02       2.644859754497e+04 
       1.496216720975e-02       2.647439231785e+04 
       1.509356767181e-02       2.649813825694e+04 
       1.522500672732e-02       2.651986182375e+04 
       1.535648471047e-02       2.653958925839e+04 
       1.548800197636e-02       2.655734658304e+04 
       1.561955890088e-02       2.657315960467e+04 
       1.575115588066e-02       2.658705391770e+04 
       1.588279333308e-02       2.659905490821e+04 
       1.601447169617e-02       2.660918775666e+04 
       1.614619142873e-02       2.661747743863e+04 
       1.627795301026e-02       2.662394873004e+04 
       1.640975694108e-02       2.662862620850e+04 
       1.654160374236e-02       2.663153425606e+04 
       1.667349395624e-02       2.663269706129e+04 
       1.680542814590e-02       2.663213862179e+04 
       1.693740689573e-02       2.662988274611e+04 
       1.706943081145e-02       2.662595305594e+04 
       1.720150052026e-02       2.662037298821e+04 
       1.733361667106e-02       2.661316579688e+04 
       1.746577993460e-02       2.660435455522e+04 
       1.759799100373e-02       2.659396215650e+04 
       1.773025059363e-02       2.658201131691e+04 
       1.786255944202e-02       2.656852457684e+04 
       1.799491830946e-02       2.655352430255e+04 
       1.812732797965e-02       2.653703268728e+04 
       1.825978925965e-02       2.651907175328e+04 
       1.839230298030e-02       2.649966335250e+04 
       1.852486999646e-02       2.647882916913e+04 
       1.865749118742e-02       2.645659071855e+04 
       1.879016745723e-02       2.643296935153e+04 
       1.892289973510e-02       2.640798625217e+04 
       1.905568897580e-02       2.638166244104e+04 
       1.918853616004e-02       2.635401877590e+04 
       1.932144229498e-02       2.632507595096e+04 
       1.945440841460e-02       2.629485450061e+04 
       1.958743558023e-02       2.626337479719e+04 
       1.972052488100e-02       2.623065705360e+04 
       1.985367743437e-02       2.619672132386e+04 
       1.998689438663e-02       2.616158750265e+04 
       2.012017691347e-02       2.612527532744e+04 
       2.025352622052e-02       2.608780437739e+04 
       2.038694354397e-02       2.604919407532e+04 
       2.052043015111e-02       2.600946368791e+04 
       2.065398734101e-02       2.596863232535e+04 
       2.078761644514e-02       2.592671894221e+04 
       2.092131882805e-02       2.588374233813e+04 
       2.105509588803e-02       2.583972115731e+04 
       2.118894905785e-02       2.579467388980e+04 
       2.132287980546e-02       2.574861887169e+04 
       2.145688963480e-02       2.570157428407e+04 
       2.159098008652e-02       2.565355815481e+04 
       2.172515273882e-02       2.560458835766e+04 
       2.185940920827e-02       2.555468261315e+04 
       2.199375115069e-02       2.550385848832e+04 
       2.212818026199e-02       2.545213339676e+04 
       2.226269827911e-02       2.539952459895e+04 
       2.239730698099e-02       2.534604920205e+04 
       2.253200818946e-02       2.529172416042e+04 
       2.266680377032e-02       2.523656627572e+04 
       2.280169563433e-02       2.518059219512e+04 
       2.293668573829e-02       2.512381841392e+04 
       2.307177608611e-02       2.506626127434e+04 
       2.320696872998e-02       2.500793696535e+04 
       2.334226577150e-02       2.494886152212e+04 
       2.347766936291e-02       2.488905082765e+04 
       2.361318170831e-02       2.482852061065e+04 
       2.374880506497e-02       2.476728644796e+04 
       2.388454174460e-02       2.470536376080e+04 
       2.402039411477e-02       2.464276781845e+04 
       2.415636460025e-02       2.457951373648e+04 
       2.429245568452e-02       2.451561647656e+04 
       2.442866991123e-02       2.445109084612e+04 
       2.456500988576e-02       2.438595149879e+04 
       2.470147827680e-02       2.432021293417e+04 
       2.483807781799e-02       2.425388949810e+04 
       2.497481130964e-02       2.418699538145e+04 
       2.511168162046e-02       2.411954462119e+04 
       2.524869168938e-02       2.405155109864e+04 
       2.538584452743e-02       2.398302854143e+04 
       2.552314321964e-02       2.391399052236e+04 
       2.566059092707e-02       2.384445045839e+04 
       2.579819088885e-02       2.377442161132e+04 
       2.593594642432e-02       2.370391708920e+04 
       2.607386093520e-02       2.363294984347e+04 
       2.621193790794e-02       2.356153266866e+04 
       2.635018091599e-02       2.348967820592e+04 
       2.648859362229e-02       2.341739893977e+04 
       2.662717978178e-02       2.334470719839e+04 
       2.676594324399e-02       2.327161515407e+04 
       2.690488795575e-02       2.319813482331e+04 
       2.704401796397e-02       2.312427806598e+04 
       2.718333741855e-02       2.305005658466e+04 
       2.732285057536e-02       2.297548192655e+04 
       2.746256179935e-02       2.290056548192e+04 
       2.760247556773e-02       2.282531848310e+04 
       2.774259647337e-02       2.274975200667e+04 
       2.788292922816e-02       2.267387697195e+04 
       2.802347866668e-02       2.259770414049e+04 
       2.816424974982e-02       2.252124411695e+04 
       2.830524756871e-02       2.244450734877e+04 
       2.844647734867e-02       2.236750412516e+04 
       2.858794445333e-02       2.229024457850e+04 
       2.872965438902e-02       2.221273868294e+04 
       2.887161280915e-02       2.213499625457e+04 
       2.901382551889e-02       2.205702695238e+04 
       2.915629847999e-02       2.197884027637e+04 
       2.929903781582e-02       2.190044556813e+04 
       2.944204981650e-02       2.182185201229e+04 
       2.958534094443e-02       2.174306863368e+04 
       2.972891783982e-02       2.166410429887e+04 
       2.987278732665e-02       2.158496771618e+04 
       3.001695641872e-02       2.150566743447e+04 
       3.016143232600e-02       2.142621184422e+04 
       3.030622246132e-02       2.134660917542e+04 
       3.045133444719e-02       2.126686750099e+04 
       3.059677612306e-02       2.118699473261e+04 
       3.074255555277e-02       2.110699862216e+04 
       3.088868103241e-02       2.102688676275e+04 
       3.103516109846e-02       2.094666658667e+04 
       3.118200453633e-02       2.086634536669e+04 
       3.132922038922e-02       2.078593021367e+04 
       3.147681796747e-02       2.070542807857e+04 
       3.162480685820e-02       2.062484575132e+04 
       3.177319693554e-02       2.054418986019e+04 
       3.192199837117e-02       2.046346687161e+04 
       3.207122164548e-02       2.038268309034e+04 
       3.222087755919e-02       2.030184465820e+04 
       3.237097724548e-02       2.022095755469e+04 
       3.252153218280e-02       2.014002759489e+04 
       3.267255420819e-02       2.005906043234e+04 
       3.282405553129e-02       1.997806155347e+04 
       3.297604874909e-02       1.989703628143e+04 
       3.312854686128e-02       1.981598977432e+04 
       3.328156328647e-02       1.973492702281e+04 
       3.343511187921e-02       1.965385285208e+04 
       3.358920694786e-02       1.957277191815e+04 
       3.374386327334e-02       1.949168871012e+04 
       3.389909612897e-02       1.941060754728e+04 
       3.405492130119e-02       1.932953257900e+04 
       3.421135511154e-02       1.924846778277e+04 
       3.436841443971e-02       1.916741696353e+04 
       3.452611674786e-02       1.908638375500e+04 
       3.468448010632e-02       1.900537161259e+04 
       3.484352322063e-02       1.892438381948e+04 
       3.500326546019e-02       1.884342347703e+04 
       3.516372688843e-02       1.876249351193e+04 
       3.532492829479e-02       1.868159666643e+04 
       3.548689122853e-02       1.860073550239e+04 
       3.564963803443e-02       1.851991239587e+04 
       3.581319189078e-02       1.843912953659e+04 
       3.597757684946e-02       1.835838892780e+04 
       3.614281787860e-02       1.827769237558e+04 
       3.630894090774e-02       1.819704149725e+04 
       3.647597287586e-02       1.811643771300e+04 
       3.664394178242e-02       1.803588224212e+04 
       3.681287674162e-02       1.795537610074e+04 
       3.698280804019e-02       1.787492010081e+04 
       3.715376719892e-02       1.779451484212e+04 
       3.732578703826e-02       1.771416071428e+04 
       3.749890174832e-02       1.763385788419e+04 
       3.767314696362e-02       1.755360629950e+04 
       3.784855984292e-02       1.747340568114e+04 
       3.802517915470e-02       1.739325551516e+04 
       3.820304536859e-02       1.731315505049e+04 
       3.838220075338e-02       1.723310329177e+04 
       3.856268948210e-02       1.715309899410e+04 
       3.874455774487e-02       1.707314065419e+04 
       3.892785387017e-02       1.699322650418e+04 
       3.911262845521e-02       1.691335449899e+04 
       3.929893450640e-02       1.683352231879e+04 
       3.948682759076e-02       1.675372734662e+04 
       3.967636599918e-02       1.667396666615e+04 
       3.986761092300e-02       1.659423705003e+04 
       4.006062664478e-02       1.651453494513e+04 
       4.025548074503e-02       1.643485646025e+04 
       4.045224432623e-02       1.635519735536e+04 
       4.065099225608e-02       1.627555302410e+04 
       4.085180343185e-02       1.619591847686e+04 
       4.105476106811e-02       1.611628832417e+04 
       4.125995301029e-02       1.603665675841e+04 
       4.146747207694e-02       1.595701753183e+04 
       4.167741643382e-02       1.587736393084e+04 
       4.188989000332e-02       1.579768875674e+04 
       4.210500291347e-02       1.571798429440e+04 
       4.232287199090e-02       1.563824228322e+04 
       4.254362130309e-02       1.555845388392e+04 
       4.276738275589e-02       1.547860964290e+04 
       4.299429675302e-02       1.539869945414e+04 
       4.322451292540e-02       1.531871251145e+04 
       4.345819093920e-02       1.523863726201e+04 
       4.369550139287e-02       1.515846135457e+04 
       4.393662681501e-02       1.507817157659e+04 
       4.418176277677e-02       1.499775378921e+04 
       4.443111913468e-02       1.491719285259e+04 
       4.468492142221e-02       1.483647254365e+04 
       4.494341241189e-02       1.475557546028e+04 
       4.520685387281e-02       1.467448291906e+04 
       4.547552855331e-02       1.459317483647e+04 
       4.574974242356e-02       1.451162958934e+04 
       4.602982721900e-02       1.442982386677e+04 
       4.631614333354e-02       1.434773249397e+04 
       4.660908312024e-02       1.426532822570e+04 
       4.690907466873e-02       1.418258152193e+04 
       4.721658614228e-02       1.409946027301e+04 
       4.753213077402e-02       1.401592948888e+04 
       4.785627264308e-02       1.393195093440e+04 
       4.818963337644e-02       1.384748269460e+04 
       4.853289995470e-02       1.376247866859e+04 
       4.888683383927e-02       1.367688796042e+04 
       4.925228168869e-02       1.359065414972e+04 
       4.963018799398e-02       1.350371441279e+04 
       5.002161004220e-02       1.341599845136e+04 
       5.042773571743e-02       1.332742718015e+04 
       5.084990477534e-02       1.323791110139e+04 
       5.128963438975e-02       1.314734827974e+04 
       5.174864997547e-02       1.305562179100e+04 
       5.222892255516e-02       1.296259647836e+04 
       5.273271427182e-02       1.286811478385e+04 
       5.326263407034e-02       1.277199134298e+04 
       5.382170609822e-02       1.267400588563e+04 
       5.441345401769e-02       1.257389382539e+04 
       5.504200517617e-02       1.247133361938e+04 
       5.571221940486e-02       1.236592964319e+04 
       5.642984797498e-02       1.225718868933e+04 
       5.720172862468e-02       1.214448745914e+04 
       5.803602189992e-02       1.202702721733e+04 
       5.894249095660e-02       1.190377026310e+04 
       5.993281880661e-02       1.177335100477e+04 
       6.102093896134e-02       1.163395266331e+04 
       6.222331957369e-02       1.148314048409e+04 
       6.355907632852e-02       1.131764767009e+04 
