# Matter power spectrum P(k) at redshift z=0
# for k=1.04427e-05 to 1.65666 h/Mpc,
# number of wavenumbers equal to 565
#    1:k (h/Mpc)              2:P (Mpc/h)^3        
       1.044266608752e-05       5.256160036521e+01 
       2.352657312801e-05       1.148077922334e+02 
       3.665747700377e-05       1.758848692693e+02 
       4.987183091680e-05       2.364912783279e+02 
       6.320670568264e-05       2.970201025978e+02 
       7.670013073674e-05       3.577640524476e+02 
       9.039144631628e-05       4.189724614746e+02 
       1.043216716404e-04       4.808745345794e+02 
       1.185338939475e-04       5.436912285919e+02 
       1.330736832839e-04       6.076424313304e+02 
       1.479895379356e-04       6.729519404582e+02 
       1.633333653181e-04       7.398513368842e+02 
       1.791610029113e-04       8.085832884350e+02 
       1.955327833694e-04       8.794045683180e+02 
       2.125141471293e-04       9.525889472823e+02 
       2.301763045253e-04       1.028430048072e+03 
       2.485969473854e-04       1.107244205394e+03 
       2.678610070756e-04       1.189373339616e+03 
       2.880614516386e-04       1.275187819833e+03 
       3.093001086431e-04       1.365089256936e+03 
       3.316884921778e-04       1.459513126377e+03 
       3.553486016132e-04       1.558931071027e+03 
       3.804136459084e-04       1.663852675080e+03 
       4.070286301241e-04       1.774826430215e+03 
       4.353507205981e-04       1.892439536785e+03 
       4.655492828033e-04       2.017316100849e+03 
       4.978054632253e-04       2.150113212161e+03 
       5.323111672007e-04       2.291514334979e+03 
       5.692672740263e-04       2.442219436217e+03 
       6.088809363186e-04       2.602931344288e+03 
       6.513618415753e-04       2.774338010712e+03 
       6.969173790383e-04       2.957090664646e+03 
       7.457467600056e-04       3.151778320747e+03 
       7.980342830633e-04       3.358899703561e+03 
       8.539421039327e-04       3.578834320088e+03 
       9.136030352277e-04       3.811815027470e+03 
       9.771140248607e-04       4.057904846523e+03 
       1.044531000495e-03       4.316980802450e+03 
       1.115865690000e-03       4.588727119540e+03 
       1.191084829620e-03       4.872639149302e+03 
       1.270111882562e-03       5.168038099783e+03 
       1.352831070846e-03       5.474095213130e+03 
       1.439093243643e-03       5.789862831280e+03 
       1.528722924689e-03       6.114309086853e+03 
       1.621525826926e-03       6.446352908147e+03 
       1.717296185878e-03       6.784896574644e+03 
       1.815823408688e-03       7.128853954057e+03 
       1.916897717171e-03       7.477173473803e+03 
       2.020314639387e-03       7.828845386151e+03 
       2.125878347913e-03       8.182933106909e+03 
       2.233403942551e-03       8.538583355922e+03 
       2.342718831480e-03       8.895007332343e+03 
       2.453663386019e-03       9.251491404807e+03 
       2.566091040610e-03       9.607394983365e+03 
       2.679867991525e-03       9.962146906791e+03 
       2.794872622908e-03       1.031524092898e+04 
       2.910994762521e-03       1.066623068668e+04 
       3.028134845151e-03       1.101472442567e+04 
       3.146203040641e-03       1.136037973613e+04 
       3.265118386415e-03       1.170289852110e+04 
       3.384807951037e-03       1.204202234782e+04 
       3.505206045274e-03       1.237752821239e+04 
       3.626253489858e-03       1.270922467224e+04 
       3.747896943909e-03       1.303694833592e+04 
       3.870088294527e-03       1.336056071522e+04 
       3.992784105686e-03       1.367994543007e+04 
       4.115945123222e-03       1.399500572315e+04 
       4.239535831865e-03       1.430566222711e+04 
       4.363524059946e-03       1.461185094117e+04 
       4.487880627340e-03       1.491352139778e+04 
       4.612579032324e-03       1.521063501971e+04 
       4.737595173267e-03       1.550316373270e+04 
       4.862907101374e-03       1.579108885938e+04 
       4.988494801028e-03       1.607439936107e+04 
       5.114339994586e-03       1.635309123187e+04 
       5.240425968852e-03       1.662716662322e+04 
       5.366737420689e-03       1.689663093757e+04 
       5.493260319575e-03       1.716149768790e+04 
       5.619981785112e-03       1.742178448152e+04 
       5.746889977762e-03       1.767751164799e+04 
       5.873974001272e-03       1.792870282332e+04 
       6.001223815436e-03       1.817538460094e+04 
       6.128630158009e-03       1.841758613069e+04 
       6.256184474722e-03       1.865533878152e+04 
       6.383878856488e-03       1.888867586041e+04 
       6.511705982981e-03       1.911763230871e+04 
       6.639659071880e-03       1.934224444372e+04 
       6.767731833146e-03       1.956254972954e+04 
       6.895918427798e-03       1.977858656127e+04 
       7.024213430666e-03       1.999039409921e+04 
       7.152611796733e-03       2.019801212597e+04 
       7.281108830651e-03       2.040148092078e+04 
       7.409700159115e-03       2.060084117647e+04 
       7.538381705793e-03       2.079613391500e+04 
       7.667149668543e-03       2.098740042483e+04 
       7.796000498694e-03       2.117468221004e+04 
       7.924930882172e-03       2.135802092409e+04 
       8.053937722295e-03       2.153745832428e+04 
       8.183018124065e-03       2.171303621026e+04 
       8.312169379824e-03       2.188479636138e+04 
       8.441388956119e-03       2.205278048538e+04 
       8.570674481691e-03       2.221703014804e+04 
       8.700023736453e-03       2.237758672917e+04 
       8.829434641386e-03       2.253449137034e+04 
       8.958905249255e-03       2.268778493333e+04 
       9.088433736079e-03       2.283750798067e+04 
       9.218018393279e-03       2.298370074415e+04 
       9.347657620455e-03       2.312640313259e+04 
       9.477349918719e-03       2.326565472576e+04 
       9.607093884554e-03       2.340149479375e+04 
       9.736888204144e-03       2.353396230735e+04 
       9.866731648135e-03       2.366309594892e+04 
       9.996623066789e-03       2.378893412214e+04 
       1.012656138551e-02       2.391151494267e+04 
       1.025654560069e-02       2.403087623820e+04 
       1.038657477588e-02       2.414705552135e+04 
       1.051664803823e-02       2.426008997715e+04 
       1.064676457515e-02       2.437001643004e+04 
       1.077692363133e-02       2.447687132218e+04 
       1.090712450582e-02       2.458069069069e+04 
       1.103736654941e-02       2.468151015360e+04 
       1.116764916223e-02       2.477936490894e+04 
       1.129797179141e-02       2.487428974221e+04 
       1.142833392898e-02       2.496631905149e+04 
       1.155873510993e-02       2.505548687727e+04 
       1.168917491035e-02       2.514182694356e+04 
       1.181965294573e-02       2.522537269586e+04 
       1.195016886942e-02       2.530615734198e+04 
       1.208072237109e-02       2.538421388214e+04 
       1.221131317543e-02       2.545957512602e+04 
       1.234194104083e-02       2.553227371497e+04 
       1.247260575822e-02       2.560234211744e+04 
       1.260330715000e-02       2.566981262106e+04 
       1.273404506894e-02       2.573471727003e+04 
       1.286481939733e-02       2.579708764458e+04 
       1.299563004604e-02       2.585695447342e+04 
       1.312647695372e-02       2.591434743478e+04 
       1.325736008609e-02       2.596929563631e+04 
       1.338827943517e-02       2.602182835896e+04 
       1.351923501872e-02       2.607197522090e+04 
       1.365022687957e-02       2.611976589281e+04 
       1.378125508516e-02       2.616523044706e+04 
       1.391231972698e-02       2.620839552496e+04 
       1.404342092013e-02       2.624929257250e+04 
       1.417455880293e-02       2.628794895680e+04 
       1.430573353651e-02       2.632439284688e+04 
       1.443694530450e-02       2.635865213254e+04 
       1.456819431270e-02       2.639075444631e+04 
       1.469948078881e-02       2.642072717529e+04 
       1.483080498221e-02       2.644859746812e+04 
       1.496216716374e-02       2.647439224038e+04 
       1.509356762549e-02       2.649813817885e+04 
       1.522500668068e-02       2.651986174504e+04 
       1.535648466351e-02       2.653958917908e+04 
       1.548800192908e-02       2.655734650312e+04 
       1.561955885328e-02       2.657315952415e+04 
       1.575115583275e-02       2.658705383659e+04 
       1.588279328485e-02       2.659905482652e+04 
       1.601447164763e-02       2.660918767439e+04 
       1.614619137987e-02       2.661747735579e+04 
       1.627795296108e-02       2.662394864664e+04 
       1.640975689158e-02       2.662862612455e+04 
       1.654160369255e-02       2.663153417156e+04 
       1.667349390611e-02       2.663269697625e+04 
       1.680542809545e-02       2.663213853624e+04 
       1.693740684496e-02       2.662988266004e+04 
       1.706943076036e-02       2.662595296937e+04 
       1.720150046886e-02       2.662037290113e+04 
       1.733361661934e-02       2.661316570933e+04 
       1.746577988256e-02       2.660435446720e+04 
       1.759799095138e-02       2.659396206802e+04 
       1.773025054095e-02       2.658201122798e+04 
       1.786255938902e-02       2.656852448747e+04 
       1.799491825615e-02       2.655352421277e+04 
       1.812732792601e-02       2.653703259709e+04 
       1.825978920570e-02       2.651907166270e+04 
       1.839230292603e-02       2.649966326154e+04 
       1.852486994187e-02       2.647882907781e+04 
       1.865749113251e-02       2.645659062688e+04 
       1.879016740200e-02       2.643296925953e+04 
       1.892289967955e-02       2.640798615983e+04 
       1.905568891992e-02       2.638166234841e+04 
       1.918853610385e-02       2.635401868298e+04 
       1.932144223847e-02       2.632507585777e+04 
       1.945440835777e-02       2.629485440717e+04 
       1.958743552308e-02       2.626337470349e+04 
       1.972052482353e-02       2.623065695969e+04 
       1.985367737657e-02       2.619672122974e+04 
       1.998689432851e-02       2.616158740835e+04 
       2.012017685503e-02       2.612527523296e+04 
       2.025352616176e-02       2.608780428276e+04 
       2.038694348488e-02       2.604919398054e+04 
       2.052043009170e-02       2.600946359302e+04 
       2.065398728127e-02       2.596863223035e+04 
       2.078761638509e-02       2.592671884713e+04 
       2.092131876767e-02       2.588374224298e+04 
       2.105509582733e-02       2.583972106212e+04 
       2.118894899682e-02       2.579467379458e+04 
       2.132287974411e-02       2.574861877645e+04 
       2.145688957313e-02       2.570157418884e+04 
       2.159098002452e-02       2.565355805961e+04 
       2.172515267649e-02       2.560458826251e+04 
       2.185940914562e-02       2.555468251806e+04 
       2.199375108771e-02       2.550385839331e+04 
       2.212818019868e-02       2.545213330185e+04 
       2.226269821548e-02       2.539952450415e+04 
       2.239730691703e-02       2.534604910740e+04 
       2.253200812517e-02       2.529172406592e+04 
       2.266680370571e-02       2.523656618140e+04 
       2.280169556939e-02       2.518059210100e+04 
       2.293668567302e-02       2.512381832000e+04 
       2.307177602051e-02       2.506626118066e+04 
       2.320696866405e-02       2.500793687192e+04 
       2.334226570524e-02       2.494886142895e+04 
       2.347766929632e-02       2.488905073477e+04 
       2.361318164139e-02       2.482852051807e+04 
       2.374880499772e-02       2.476728635570e+04 
       2.388454167702e-02       2.470536366889e+04 
       2.402039404685e-02       2.464276772690e+04 
       2.415636453200e-02       2.457951364531e+04 
       2.429245561594e-02       2.451561638579e+04 
       2.442866984232e-02       2.445109075576e+04 
       2.456500981652e-02       2.438595140887e+04 
       2.470147820722e-02       2.432021284469e+04 
       2.483807774807e-02       2.425388940909e+04 
       2.497481123939e-02       2.418699529294e+04 
       2.511168154987e-02       2.411954453318e+04 
       2.524869161846e-02       2.405155101116e+04 
       2.538584445617e-02       2.398302845448e+04 
       2.552314314804e-02       2.391399043597e+04 
       2.566059085514e-02       2.384445037256e+04 
       2.579819081658e-02       2.377442152609e+04 
       2.593594635170e-02       2.370391700457e+04 
       2.607386086225e-02       2.363294975946e+04 
       2.621193783464e-02       2.356153258530e+04 
       2.635018084235e-02       2.348967812320e+04 
       2.648859354831e-02       2.341739885773e+04 
       2.662717970746e-02       2.334470711703e+04 
       2.676594316933e-02       2.327161507342e+04 
       2.690488788074e-02       2.319813474338e+04 
       2.704401788862e-02       2.312427798677e+04 
       2.718333734285e-02       2.305005650620e+04 
       2.732285049931e-02       2.297548184885e+04 
       2.746256172295e-02       2.290056540499e+04 
       2.760247549099e-02       2.282531840697e+04 
       2.774259639628e-02       2.274975193134e+04 
       2.788292915072e-02       2.267387689744e+04 
       2.802347858889e-02       2.259770406681e+04 
       2.816424967168e-02       2.252124404412e+04 
       2.830524749022e-02       2.244450727679e+04 
       2.844647726981e-02       2.236750405406e+04 
       2.858794437412e-02       2.229024450827e+04 
       2.872965430946e-02       2.221273861361e+04 
       2.887161272923e-02       2.213499618616e+04 
       2.901382543861e-02       2.205702688489e+04 
       2.915629839936e-02       2.197884020981e+04 
       2.929903773482e-02       2.190044550252e+04 
       2.944204973514e-02       2.182185194764e+04 
       2.958534086270e-02       2.174306856998e+04 
       2.972891775773e-02       2.166410423615e+04 
       2.987278724420e-02       2.158496765444e+04 
       3.001695633590e-02       2.150566737373e+04 
       3.016143224281e-02       2.142621178449e+04 
       3.030622237776e-02       2.134660911670e+04 
       3.045133436326e-02       2.126686744330e+04 
       3.059677603876e-02       2.118699467596e+04 
       3.074255546810e-02       2.110699856655e+04 
       3.088868094736e-02       2.102688670820e+04 
       3.103516101304e-02       2.094666653317e+04 
       3.118200445053e-02       2.086634531426e+04 
       3.132922030304e-02       2.078593016232e+04 
       3.147681788091e-02       2.070542802829e+04 
       3.162480677126e-02       2.062484570214e+04 
       3.177319684821e-02       2.054418981210e+04 
       3.192199828345e-02       2.046346682463e+04 
       3.207122155738e-02       2.038268304448e+04 
       3.222087747069e-02       2.030184461345e+04 
       3.237097715659e-02       2.022095751107e+04 
       3.252153209352e-02       2.014002755240e+04 
       3.267255411850e-02       2.005906039097e+04 
       3.282405544121e-02       1.997806151325e+04 
       3.297604865861e-02       1.989703624236e+04 
       3.312854677039e-02       1.981598973639e+04 
       3.328156319518e-02       1.973492698603e+04 
       3.343511178752e-02       1.965385281646e+04 
       3.358920685575e-02       1.957277188369e+04 
       3.374386318082e-02       1.949168867682e+04 
       3.389909603603e-02       1.941060751515e+04 
       3.405492120783e-02       1.932953254804e+04 
       3.421135501776e-02       1.924846775298e+04 
       3.436841434551e-02       1.916741693492e+04 
       3.452611665323e-02       1.908638372756e+04 
       3.468448001126e-02       1.900537158634e+04 
       3.484352312514e-02       1.892438379440e+04 
       3.500326536426e-02       1.884342345314e+04 
       3.516372679206e-02       1.876249348922e+04 
       3.532492819798e-02       1.868159664491e+04 
       3.548689113127e-02       1.860073548205e+04 
       3.564963793672e-02       1.851991237671e+04 
       3.581319179261e-02       1.843912951861e+04 
       3.597757675084e-02       1.835838891100e+04 
       3.614281777952e-02       1.827769235997e+04 
       3.630894080819e-02       1.819704148282e+04 
       3.647597277584e-02       1.811643769975e+04 
       3.664394168192e-02       1.803588223006e+04 
       3.681287664064e-02       1.795537608985e+04 
       3.698280793873e-02       1.787492009108e+04 
       3.715376709696e-02       1.779451483358e+04 
       3.732578693581e-02       1.771416070690e+04 
       3.749890164537e-02       1.763385787798e+04 
       3.767314686015e-02       1.755360629445e+04 
       3.784855973894e-02       1.747340567725e+04 
       3.802517905021e-02       1.739325551242e+04 
       3.820304526357e-02       1.731315504891e+04 
       3.838220064783e-02       1.723310329134e+04 
       3.856268937601e-02       1.715309899481e+04 
       3.874455763824e-02       1.707314065603e+04 
       3.892785376298e-02       1.699322650716e+04 
       3.911262834746e-02       1.691335450308e+04 
       3.929893439808e-02       1.683352232400e+04 
       3.948682748186e-02       1.675372735295e+04 
       3.967636588970e-02       1.667396667358e+04 
       3.986761081292e-02       1.659423705856e+04 
       4.006062653410e-02       1.651453495474e+04 
       4.025548063373e-02       1.643485647095e+04 
       4.045224421430e-02       1.635519736712e+04 
       4.065099214351e-02       1.627555303693e+04 
       4.085180331864e-02       1.619591849074e+04 
       4.105476095424e-02       1.611628833909e+04 
       4.125995289574e-02       1.603665677436e+04 
       4.146747196171e-02       1.595701754880e+04 
       4.167741631788e-02       1.587736394883e+04 
       4.188988988667e-02       1.579768877572e+04 
       4.210500279609e-02       1.571798431436e+04 
       4.232287187277e-02       1.563824230415e+04 
       4.254362118420e-02       1.555845390581e+04 
       4.276738263621e-02       1.547860966572e+04 
       4.299429663254e-02       1.539869947788e+04 
       4.322451280409e-02       1.531871253611e+04 
       4.345819081705e-02       1.523863728754e+04 
       4.369550126985e-02       1.515846138098e+04 
       4.393662669109e-02       1.507817160386e+04 
       4.418176265194e-02       1.499775381731e+04 
       4.443111900890e-02       1.491719288149e+04 
       4.468492129546e-02       1.483647257334e+04 
       4.494341228413e-02       1.475557549073e+04 
       4.520685374400e-02       1.467448295025e+04 
       4.547552842342e-02       1.459317486837e+04 
       4.574974229255e-02       1.451162962191e+04 
       4.602982708683e-02       1.442982390000e+04 
       4.631614320016e-02       1.434773252781e+04 
       4.660908298560e-02       1.426532826013e+04 
       4.690907453279e-02       1.418258155691e+04 
       4.721658600497e-02       1.409946030850e+04 
       4.753213063528e-02       1.401592952484e+04 
       4.785627250284e-02       1.393195097076e+04 
       4.818963323462e-02       1.384748273134e+04 
       4.853289981122e-02       1.376247870564e+04 
       4.888683369404e-02       1.367688799773e+04 
       4.925228154161e-02       1.359065418724e+04 
       4.963018784493e-02       1.350371445044e+04 
       5.002160989107e-02       1.341599848907e+04 
       5.042773556407e-02       1.332742721784e+04 
       5.084990461960e-02       1.323791113897e+04 
       5.128963423145e-02       1.314734831713e+04 
       5.174864981441e-02       1.305562182808e+04 
       5.222892239113e-02       1.296259651502e+04 
       5.273271410455e-02       1.286811481998e+04 
       5.326263389955e-02       1.277199137843e+04 
       5.382170592356e-02       1.267400592024e+04 
       5.441345383877e-02       1.257389385900e+04 
       5.504200499255e-02       1.247133365181e+04 
       5.571221921599e-02       1.236592967423e+04 
       5.642984778023e-02       1.225718871875e+04 
       5.720172842332e-02       1.214448748669e+04 
       5.803602169105e-02       1.202702724275e+04 
       5.894249073918e-02       1.190377028610e+04 
       5.993281857939e-02       1.177335102508e+04 
       6.102093872283e-02       1.163395268063e+04 
       6.222331932216e-02       1.148314049820e+04 
       6.355907606196e-02       1.131764768084e+04 
