# dimensionless total [l(l+1)/2pi] C_l's
# for l=2 to 3000, i.e. number of multipoles equal to 2999
#
# -> if you prefer output in CAMB/HealPix/LensPix units/order, set 'format' to 'camb' in input file
# -> if you don't want to see such a header, set 'headers' to 'no' in input file
# -> for CMB lensing (phi), these are C_l^phi-phi for the lensing potential.
#    Remember the conversion factors:
#    C_l^dd (deflection) = l(l+1) C_l^phi-phi
#    C_l^gg (shear/convergence) = 1/4 (l(l+1))^2 C_l^phi-phi
#
# 1:l     2:TT                     3:EE                     4:TE                     5:BB                     6:phiphi                 7:TPhi                   8:Ephi               
    2       1.494877708314e-10       7.298833461195e-15       4.817206426890e-13       0.000000000000e+00       8.820525138269e-09       4.854890826001e-10      -2.511548685858e-12 
    3       1.409143523627e-10       1.236034812436e-14       6.061995649464e-13       0.000000000000e+00       5.421685327291e-09       3.460278115155e-10      -2.208999987715e-12 
    4       1.324542922746e-10       1.443143127758e-14       6.270426706265e-13       0.000000000000e+00       3.767293677579e-09       2.633962110525e-10      -1.762137047640e-12 
    5       1.257487783665e-10       1.334491734932e-14       5.871520999163e-13       0.000000000000e+00       2.811486755748e-09       2.090154093614e-10      -1.307917003756e-12 
    6       1.208074675103e-10       1.029561488225e-14       5.166020846337e-13       0.000000000000e+00       2.196123192218e-09       1.706923665619e-10      -8.936819658484e-13 
    7       1.173339390505e-10       6.821750824122e-15       4.357881983854e-13       0.000000000000e+00       1.771931465535e-09       1.424027351640e-10      -5.435982751075e-13 
    8       1.150099755910e-10       4.028994827919e-15       3.569618127464e-13       0.000000000000e+00       1.464666122412e-09       1.207772707595e-10      -2.684415713304e-13 
    9       1.135900877490e-10       2.327128022547e-15       2.873850542254e-13       0.000000000000e+00       1.233435405758e-09       1.037901442291e-10      -6.983555747442e-14 
   10       1.128604763718e-10       1.564456135470e-15       2.311359263013e-13       0.000000000000e+00       1.054183789170e-09       9.019959184869e-11       5.755298344533e-14 
   11       1.126811324338e-10       1.339468945564e-15       1.898894305216e-13       0.000000000000e+00       8.887248613860e-10       7.947790535446e-11       1.233191918095e-13 
   12       1.129426947660e-10       1.282159625009e-15       1.633742551289e-13       0.000000000000e+00       7.765606869747e-10       7.025352246090e-11       1.421094796844e-13 
   13       1.135270232022e-10       1.194690204582e-15       1.498200163970e-13       0.000000000000e+00       6.844869873318e-10       6.271836610050e-11       1.276909418721e-13 
   14       1.143345941131e-10       1.048954828057e-15       1.466111254959e-13       0.000000000000e+00       6.078792925644e-10       5.618807643968e-11       9.279818393851e-14 
   15       1.153726803978e-10       9.047210656745e-16       1.508035493646e-13       0.000000000000e+00       5.433961654275e-10       5.073313232782e-11       4.965366024378e-14 
   16       1.165995516809e-10       8.232061696222e-16       1.593773038488e-13       0.000000000000e+00       4.885705485358e-10       4.610871612488e-11       7.345723774852e-15 
   17       1.179355955315e-10       8.218250973824e-16       1.697699353657e-13       0.000000000000e+00       4.415390216506e-10       4.211551818253e-11      -2.778492610182e-14 
   18       1.193827305818e-10       8.732231923822e-16       1.801882176141e-13       0.000000000000e+00       4.007174700549e-10       3.856921821997e-11      -5.219012043826e-14 
   19       1.209487789072e-10       9.447117178827e-16       1.896588817993e-13       0.000000000000e+00       3.654584671750e-10       3.543965019126e-11      -6.497909080730e-14 
   20       1.225791739495e-10       1.002773563368e-15       1.974036546825e-13       0.000000000000e+00       3.344033006362e-10       3.267265685461e-11      -6.696688994321e-14 
   21       1.242857156493e-10       1.050419986503e-15       2.034924624553e-13       0.000000000000e+00       3.070645437706e-10       3.022405654864e-11      -6.028692107937e-14 
   22       1.260675319793e-10       1.105866187941e-15       2.083820866540e-13       0.000000000000e+00       2.827885226880e-10       2.801308298234e-11      -4.828744739908e-14 
   23       1.279139368772e-10       1.188379173501e-15       2.125485640603e-13       0.000000000000e+00       2.612417275539e-10       2.600975235267e-11      -3.392390473937e-14 
   24       1.297931529674e-10       1.316365463207e-15       2.165413378371e-13       0.000000000000e+00       2.419263070907e-10       2.418162824899e-11      -2.030683269308e-14 
   25       1.317220337146e-10       1.490236727640e-15       2.208255441560e-13       0.000000000000e+00       2.246153808074e-10       2.253787828157e-11      -9.281100924640e-15 
   26       1.337127574697e-10       1.703049221753e-15       2.258035074925e-13       0.000000000000e+00       2.089959631662e-10       2.108010757871e-11      -2.182298531218e-15 
   27       1.357462935533e-10       1.948429810482e-15       2.315115049435e-13       0.000000000000e+00       1.948807964868e-10       1.977447048360e-11       7.990232803019e-16 
   28       1.377868436012e-10       2.219996371831e-15       2.377985452880e-13       0.000000000000e+00       1.820265895071e-10       1.856927641251e-11       5.280659665765e-17 
   29       1.398441919085e-10       2.517221052805e-15       2.443655107949e-13       0.000000000000e+00       1.703677857527e-10       1.746029008740e-11      -3.619092573827e-15 
   30       1.419327241170e-10       2.841271124250e-15       2.507717025277e-13       0.000000000000e+00       1.597792976868e-10       1.644943831630e-11      -8.996805038500e-15 
   31       1.440564601328e-10       3.192692862871e-15       2.564950275998e-13       0.000000000000e+00       1.500452627826e-10       1.552933029321e-11      -1.464893421384e-14 
   32       1.462183818471e-10       3.569348176407e-15       2.611479738878e-13       0.000000000000e+00       1.411154888368e-10       1.469064561252e-11      -1.970853265646e-14 
   33       1.484118719322e-10       3.967604467188e-15       2.643313322878e-13       0.000000000000e+00       1.329268973673e-10       1.391558756284e-11      -2.336091899107e-14 
   34       1.506241077545e-10       4.384331799807e-15       2.656624210196e-13       0.000000000000e+00       1.253649783942e-10       1.318245653120e-11      -2.485857473839e-14 
   35       1.528615864957e-10       4.822241233562e-15       2.650844814997e-13       0.000000000000e+00       1.183910905722e-10       1.249192846903e-11      -2.430501648864e-14 
   36       1.551318707725e-10       5.286483753749e-15       2.626681537985e-13       0.000000000000e+00       1.119493510195e-10       1.184910549372e-11      -2.215596354395e-14 
   37       1.574371509476e-10       5.782378897573e-15       2.585251546670e-13       0.000000000000e+00       1.059559958811e-10       1.125616737041e-11      -1.897057087388e-14 
   38       1.597779257967e-10       6.312173314549e-15       2.527787980186e-13       0.000000000000e+00       1.003955770345e-10       1.071199322100e-11      -1.522523277217e-14 
   39       1.621493064610e-10       6.877256042078e-15       2.455892562275e-13       0.000000000000e+00       9.525048183158e-11       1.021186705219e-11      -1.145330274484e-14 
   40       1.645391445692e-10       7.479024404064e-15       2.371652847118e-13       0.000000000000e+00       9.047166995503e-11       9.747162556245e-12      -8.304218418018e-15 
   41       1.669336323002e-10       8.118640708386e-15       2.277046203449e-13       0.000000000000e+00       8.599576664292e-11       9.308080537077e-12      -6.380364490153e-15 
   42       1.693379592207e-10       8.796211115964e-15       2.171846932344e-13       0.000000000000e+00       8.180962532325e-11       8.893714705192e-12      -5.666516467161e-15 
   43       1.717612147713e-10       9.511336641708e-15       2.055087897011e-13       0.000000000000e+00       7.790216769804e-11       8.504715267417e-12      -5.926756561656e-15 
   44       1.742104213925e-10       1.026331375223e-14       1.925614431898e-13       0.000000000000e+00       7.424500994216e-11       8.140396542012e-12      -6.854324877472e-15 
   45       1.766902120510e-10       1.105140098757e-14       1.782144066850e-13       0.000000000000e+00       7.080260796212e-11       7.799177234610e-12      -8.114314012716e-15 
   46       1.792023611411e-10       1.187575697746e-14       1.623498537741e-13       0.000000000000e+00       6.756955688223e-11       7.480328388918e-12      -9.497684545355e-15 
   47       1.817456706440e-10       1.273675174402e-14       1.448418366357e-13       0.000000000000e+00       6.454209888951e-11       7.182552988432e-12      -1.080556253148e-14 
   48       1.843157631874e-10       1.363470430416e-14       1.255486832995e-13       0.000000000000e+00       6.170687256502e-11       6.903395861886e-12      -1.180421982806e-14 
   49       1.869048182114e-10       1.456988078851e-14       1.043120800177e-13       0.000000000000e+00       5.904019867923e-11       6.639160996565e-12      -1.222324947518e-14 
   50       1.895047785731e-10       1.554249450719e-14       8.099995357042e-14       0.000000000000e+00       5.651521369449e-11       6.385984466676e-12      -1.184191205808e-14 
   51       1.921186085707e-10       1.655271053212e-14       5.565096942233e-14       0.000000000000e+00       5.412720994808e-11       6.143588388693e-12      -1.078003874277e-14 
   52       1.947516357285e-10       1.760063910701e-14       2.836766977902e-14       0.000000000000e+00       5.187393922884e-11       5.912403005737e-12      -9.282936617344e-15 
   53       1.974082493073e-10       1.868633206229e-14      -7.227818675864e-16       0.000000000000e+00       4.974802952072e-11       5.692472497799e-12      -7.642388534074e-15 
   54       2.000917997849e-10       1.980978102563e-14      -3.146745719500e-14       0.000000000000e+00       4.773664010187e-11       5.483426676939e-12      -6.198977714227e-15 
   55       2.028046455544e-10       2.097094221403e-14      -6.372428390511e-14       0.000000000000e+00       4.582538055565e-11       5.284684437561e-12      -5.262261334677e-15 
   56       2.055485368885e-10       2.216982212171e-14      -9.748518138484e-14       0.000000000000e+00       4.401199801549e-11       5.096188136553e-12      -4.842743600239e-15 
   57       2.083241512917e-10       2.340640998457e-14      -1.327815115794e-13       0.000000000000e+00       4.229548600468e-11       4.917802070843e-12      -4.857390756317e-15 
   58       2.111308619184e-10       2.468065232633e-14      -1.696493153239e-13       0.000000000000e+00       4.067194354662e-11       4.749077850362e-12      -5.205091437763e-15 
   59       2.139666427885e-10       2.599245220470e-14      -2.081296401391e-13       0.000000000000e+00       3.913439639047e-11       4.589235122654e-12      -5.765780584629e-15 
   60       2.168279740037e-10       2.734166845761e-14      -2.482688680273e-13       0.000000000000e+00       3.767261823684e-11       4.437142297485e-12      -6.399563357933e-15 
   61       2.197113297661e-10       2.872806078374e-14      -2.901096453219e-13       0.000000000000e+00       3.627597100311e-11       4.291622698441e-12      -6.975582088864e-15 
   62       2.226182471634e-10       3.015111228435e-14      -3.336605516075e-13       0.000000000000e+00       3.494307504775e-11       4.152496926421e-12      -7.468170746273e-15 
   63       2.255512321093e-10       3.161016557015e-14      -3.789201733594e-13       0.000000000000e+00       3.367400217167e-11       4.019741326089e-12      -7.880826967826e-15 
   64       2.285122332567e-10       3.310447098864e-14      -4.258859301471e-13       0.000000000000e+00       3.246736677621e-11       3.893174432238e-12      -8.218439842914e-15 
   65       2.315025974354e-10       3.463318415164e-14      -4.745541042402e-13       0.000000000000e+00       3.132024288061e-11       3.772448019956e-12      -8.487357552380e-15 
   66       2.345230250890e-10       3.619536346287e-14      -5.249198702152e-13       0.000000000000e+00       3.022808113950e-11       3.657038154787e-12      -8.695455008234e-15 
   67       2.375735257120e-10       3.778996764552e-14      -5.769773245611e-13       0.000000000000e+00       2.918462586039e-11       3.546236242890e-12      -8.852201493369e-15 
   68       2.406538829623e-10       3.941596127926e-14      -6.307179425910e-13       0.000000000000e+00       2.818358595192e-11       3.439345301363e-12      -8.967750471833e-15 
   69       2.437652590457e-10       4.107266176999e-14      -6.861255199163e-13       0.000000000000e+00       2.722422642309e-11       3.336334955974e-12      -9.049843662672e-15 
   70       2.469088368610e-10       4.275945856672e-14      -7.431802544583e-13       0.000000000000e+00       2.630676600124e-11       3.237303695140e-12      -9.106398278557e-15 
   71       2.500853081265e-10       4.447571165750e-14      -8.018602180270e-13       0.000000000000e+00       2.543068600591e-11       3.142281757862e-12      -9.146471217564e-15 
   72       2.532948418521e-10       4.622075185935e-14      -8.621413457044e-13       0.000000000000e+00       2.459469222388e-11       3.051227432493e-12      -9.180301694474e-15 
   73       2.565370528121e-10       4.799388110824e-14      -9.239974252287e-13       0.000000000000e+00       2.379667678422e-11       2.964023355491e-12      -9.219353872058e-15 
   74       2.598109700169e-10       4.979437274901e-14      -9.874000863780e-13       0.000000000000e+00       2.303368003333e-11       2.880472810184e-12      -9.276359492375e-15 
   75       2.631150051860e-10       5.162147182536e-14      -1.052318790354e-12       0.000000000000e+00       2.230185241004e-11       2.800296025523e-12      -9.365360508061e-15 
   76       2.664476003065e-10       5.347425547495e-14      -1.118718780052e-12       0.000000000000e+00       2.159741012787e-11       2.723204617229e-12      -9.497674284719e-15 
   77       2.698093763315e-10       5.535118408324e-14      -1.186554522810e-12       0.000000000000e+00       2.091978769444e-11       2.649148764730e-12      -9.668845539420e-15 
   78       2.732013208485e-10       5.725046842690e-14      -1.255775047071e-12       0.000000000000e+00       2.026899367474e-11       2.578108593135e-12      -9.869381423109e-15 
   79       2.766241264349e-10       5.917019977053e-14      -1.326325823835e-12       0.000000000000e+00       1.964465042449e-11       2.510017964624e-12      -1.008857754885e-14 
   80       2.800781730565e-10       6.110834728792e-14      -1.398148714230e-12       0.000000000000e+00       1.904597634397e-11       2.444762379578e-12      -1.031447701214e-14 
   81       2.835635104642e-10       6.306275548336e-14      -1.471181917083e-12       0.000000000000e+00       1.847176813192e-11       2.382176877711e-12      -1.053382941120e-14 
   82       2.870798405920e-10       6.503114161298e-14      -1.545359916487e-12       0.000000000000e+00       1.792038303942e-11       2.322043939203e-12      -1.073204986732e-14 
   83       2.906264999543e-10       6.701109310597e-14      -1.620613429377e-12       0.000000000000e+00       1.738972112375e-11       2.264091385830e-12      -1.089317804514e-14 
   84       2.942028223250e-10       6.900029545914e-14      -1.696876849429e-12       0.000000000000e+00       1.687773565831e-11       2.208057448721e-12      -1.100319320834e-14 
   85       2.978093344122e-10       7.099726497732e-14      -1.774112111529e-12       0.000000000000e+00       1.638410045566e-11       2.153902963005e-12      -1.106068059102e-14 
   86       3.014467270494e-10       7.300073334264e-14      -1.852288705793e-12       0.000000000000e+00       1.590878769982e-11       2.101630665924e-12      -1.106786637199e-14 
   87       3.051154814922e-10       7.500942921739e-14      -1.931376605465e-12       0.000000000000e+00       1.545155562718e-11       2.051220202165e-12      -1.102743405475e-14 
   88       3.088158582069e-10       7.702207953880e-14      -2.011346340473e-12       0.000000000000e+00       1.501193965691e-11       2.002627153844e-12      -1.094253989169e-14 
   89       3.125478856597e-10       7.903741081386e-14      -2.092169070985e-12       0.000000000000e+00       1.458924352146e-11       1.955782070487e-12      -1.081682830838e-14 
   90       3.163113491053e-10       8.105415041411e-14      -2.173816660974e-12       0.000000000000e+00       1.418253039694e-11       1.910589499011e-12      -1.065444732785e-14 
   91       3.201057793760e-10       8.307102787042e-14      -2.256261751771e-12       0.000000000000e+00       1.379061403363e-11       1.866927013713e-12      -1.046006399482e-14 
   92       3.239304416700e-10       8.508677616782e-14      -2.339477835630e-12       0.000000000000e+00       1.341204988639e-11       1.824644246244e-12      -1.023887980001e-14 
   93       3.277845966890e-10       8.710003517618e-14      -2.423431988859e-12       0.000000000000e+00       1.304547787748e-11       1.783599617375e-12      -9.996134641592e-15 
   94       3.316683533269e-10       8.910904251592e-14      -2.508061661255e-12       0.000000000000e+00       1.269072891995e-11       1.743778958623e-12      -9.735499867520e-15 
   95       3.355819240937e-10       9.111189837612e-14      -2.593294515560e-12       0.000000000000e+00       1.234786919087e-11       1.705193020870e-12      -9.460470940019e-15 
   96       3.395253568216e-10       9.310665918796e-14      -2.679055430004e-12       0.000000000000e+00       1.201685933890e-11       1.667840915807e-12      -9.174865654491e-15 
   97       3.434985271925e-10       9.509133757620e-14      -2.765266471101e-12       0.000000000000e+00       1.169755044152e-11       1.631709663441e-12      -8.882832543021e-15 
   98       3.475011312651e-10       9.706390231059e-14      -2.851846866445e-12       0.000000000000e+00       1.138967996226e-11       1.596773739603e-12      -8.588859277874e-15 
   99       3.515326780025e-10       9.902227825728e-14      -2.938712977516e-12       0.000000000000e+00       1.109286770797e-11       1.562994623458e-12      -8.297781074997e-15 
  100       3.555924817991e-10       1.009643463303e-13      -3.025778272469e-12       0.000000000000e+00       1.080661178605e-11       1.530320345015e-12      -8.014789097522e-15 
  101       3.596796550083e-10       1.028879434430e-13      -3.112953298940e-12       0.000000000000e+00       1.053028456173e-11       1.498685032634e-12      -7.745438859263e-15 
  102       3.637931004697e-10       1.047908624594e-13      -3.200145656837e-12       0.000000000000e+00       1.026312861526e-11       1.468008460536e-12      -7.495658628220e-15 
  103       3.679315040363e-10       1.066708521457e-13      -3.287259971146e-12       0.000000000000e+00       1.000425269922e-11       1.438195596313e-12      -7.271757830075e-15 
  104       3.720936162617e-10       1.085257203098e-13      -3.374204049809e-12       0.000000000000e+00       9.752833787839e-12       1.409158690517e-12      -7.078972236652e-15 
  105       3.762791568922e-10       1.103536591923e-13      -3.460908363342e-12       0.000000000000e+00       9.508763017043e-12       1.380887918438e-12      -6.916857614266e-15 
  106       3.804880191961e-10       1.121529641452e-13      -3.547309158167e-12       0.000000000000e+00       9.272079870861e-12       1.353389481852e-12      -6.783286594172e-15 
  107       3.847199874711e-10       1.139219354410e-13      -3.633342546785e-12       0.000000000000e+00       9.042772124699e-12       1.326663716783e-12      -6.675848738292e-15 
