# Matter power spectrum P(k) at redshift z=0
# for k=1.05246e-05 to 1.7531 h/Mpc,
# number of wavenumbers equal to 568
#    1:k (h/Mpc)              2:P (Mpc/h)^3        
       1.052457992823e-05       4.932503916511e+01 
       2.352701499170e-05       1.069335847027e+02 
       3.657597534214e-05       1.634684005002e+02 
       4.970723708443e-05       2.195682866224e+02 
       6.295717859348e-05       2.755937192734e+02 
       7.636311101329e-05       3.318131226647e+02 
       8.996361950706e-05       3.884550329331e+02 
       1.037989198767e-04       4.457293509243e+02 
       1.179112352045e-04       5.038382668219e+02 
       1.323451972037e-04       5.629828141304e+02 
       1.471482769679e-04       6.233674346552e+02 
       1.623712497365e-04       6.852034984970e+02 
       1.780686980867e-04       7.487123148947e+02 
       1.942995575408e-04       8.141278721563e+02 
       2.111277078320e-04       8.816994489407e+02 
       2.286226118508e-04       9.516942070535e+02 
       2.468600024152e-04       1.024399771127e+03 
       2.659226142161e-04       1.100126836486e+03 
       2.859009542849e-04       1.179211757758e+03 
       3.068940987417e-04       1.262019088234e+03 
       3.290104959850e-04       1.348943984704e+03 
       3.523687464493e-04       1.440414330836e+03 
       3.770983161652e-04       1.536892418444e+03 
       4.033401253882e-04       1.638875927357e+03 
       4.312469346113e-04       1.746897922397e+03 
       4.609834290693e-04       1.861525451805e+03 
       4.927258810958e-04       1.983356289101e+03 
       5.266612505217e-04       2.113013380867e+03 
       5.629855716181e-04       2.251136394591e+03 
       6.019014777229e-04       2.398369951397e+03 
       6.436147400061e-04       2.555348240787e+03 
       6.883297533556e-04       2.722675853943e+03 
       7.362439962045e-04       2.900905295920e+03 
       7.875416221717e-04       3.090511919080e+03 
       8.423864991607e-04       3.291867805366e+03 
       9.009151724315e-04       3.505216486941e+03 
       9.632303564933e-04       3.730651077227e+03 
       1.029395615875e-03       3.968098128782e+03 
       1.099431844174e-03       4.217309581292e+03 
       1.173315983940e-03       4.477864077103e+03 
       1.250982168501e-03       4.749178105586e+03 
       1.332325162481e-03       5.030526148873e+03 
       1.417205697163e-03       5.321067242518e+03 
       1.505457099735e-03       5.619875945925e+03 
       1.596892535198e-03       5.925974094039e+03 
       1.691312215727e-03       6.238360873738e+03 
       1.788510055807e-03       6.556039578245e+03 
       1.888279419855e-03       6.878039343273e+03 
       1.990417781356e-03       7.203432473699e+03 
       2.094730259155e-03       7.531327414488e+03 
       2.201032103024e-03       7.860933613414e+03 
       2.309150264978e-03       8.191509316097e+03 
       2.418924221310e-03       8.522381333703e+03 
       2.530206212651e-03       8.852942490344e+03 
       2.642861055244e-03       9.182650675426e+03 
       2.756765654231e-03       9.511023234692e+03 
       2.871808324680e-03       9.837633620863e+03 
       2.987888002108e-03       1.016210681932e+04 
       3.104913403113e-03       1.048411247212e+04 
       3.222802179252e-03       1.080336427790e+04 
       3.341480093452e-03       1.111961172846e+04 
       3.460880237710e-03       1.143263837258e+04 
       3.580942302992e-03       1.174225711998e+04 
       3.701611906729e-03       1.204830784216e+04 
       3.822839979382e-03       1.235065361045e+04 
       3.944582209041e-03       1.264918074039e+04 
       4.066798541339e-03       1.294379037304e+04 
       4.189452731084e-03       1.323440211087e+04 
       4.312511941465e-03       1.352095155711e+04 
       4.435946386613e-03       1.380338498977e+04 
       4.559729013292e-03       1.408165933837e+04 
       4.683835217723e-03       1.435575024559e+04 
       4.808242593791e-03       1.462559878322e+04 
       4.932930709197e-03       1.489124094390e+04 
       5.057880906423e-03       1.515265772922e+04 
       5.183076125699e-03       1.540982672031e+04 
       5.308500747437e-03       1.566272856480e+04 
       5.434140451907e-03       1.591150927813e+04 
       5.559982094146e-03       1.615605874606e+04 
       5.686013592345e-03       1.639639872506e+04 
       5.812223828160e-03       1.663181292855e+04 
       5.938602557568e-03       1.686382820383e+04 
       6.065140331067e-03       1.709167395820e+04 
       6.191828422153e-03       1.731541464616e+04 
       6.318658763135e-03       1.753513164709e+04 
       6.445623887463e-03       1.775098094743e+04 
       6.572716877850e-03       1.796293820670e+04 
       6.699931319539e-03       1.817044716398e+04 
       6.827261258157e-03       1.837403356935e+04 
       6.954701161655e-03       1.857385445198e+04 
       7.082245885897e-03       1.876977764270e+04 
       7.209890643512e-03       1.896186018069e+04 
       7.337630975653e-03       1.914999358987e+04 
       7.465462726384e-03       1.933440864192e+04 
       7.593382019398e-03       1.951511224579e+04 
       7.721385236842e-03       1.969268216823e+04 
       7.849469000038e-03       1.986606514979e+04 
       7.977630151904e-03       2.003579111010e+04 
       8.105865740909e-03       2.020197550354e+04 
       8.234173006418e-03       2.036461873401e+04 
       8.362549365281e-03       2.052372335676e+04 
       8.490992399559e-03       2.067938955093e+04 
       8.619499845276e-03       2.083161086142e+04 
       8.748069582094e-03       2.098043737226e+04 
       8.876699623842e-03       2.112589767389e+04 
       9.005388109799e-03       2.126802086613e+04 
       9.134133296682e-03       2.140685099002e+04 
       9.262933551269e-03       2.154245630147e+04 
       9.391787343602e-03       2.167484098822e+04 
       9.520693240708e-03       2.180405761193e+04 
       9.649649900819e-03       2.193012226171e+04 
       9.778656068022e-03       2.205308613583e+04 
       9.907710567318e-03       2.217295993024e+04 
       1.003681230005e-02       2.228983073774e+04 
       1.016596023967e-02       2.240367201337e+04 
       1.029515342782e-02       2.251455255806e+04 
       1.042439097071e-02       2.262250009927e+04 
       1.055367203575e-02       2.272758445503e+04 
       1.068299584839e-02       2.282972518258e+04 
       1.081236168927e-02       2.292904260613e+04 
       1.094176889151e-02       2.302560503278e+04 
       1.107121683821e-02       2.311934742051e+04 
       1.120070496010e-02       2.321038921547e+04 
       1.133023273342e-02       2.329872352350e+04 
       1.145979967790e-02       2.338435903187e+04 
       1.158940535487e-02       2.346738644723e+04 
       1.171904936555e-02       2.354775336195e+04 
       1.184873134945e-02       2.362557753442e+04 
       1.197845098280e-02       2.370084186766e+04 
       1.210820797723e-02       2.377358014006e+04 
       1.223800207843e-02       2.384382395152e+04 
       1.236783306496e-02       2.391156702738e+04 
       1.249770074710e-02       2.397703340974e+04 
       1.262760496586e-02       2.403988364784e+04 
       1.275754559196e-02       2.410043605924e+04 
       1.288752252497e-02       2.415866488746e+04 
       1.301753569245e-02       2.421457575588e+04 
       1.314758504921e-02       2.426822551874e+04 
       1.327767057656e-02       2.431959475048e+04 
       1.340779228172e-02       2.436867454524e+04 
       1.353795019712e-02       2.441569758798e+04 
       1.366814437993e-02       2.446033932249e+04 
       1.379837491150e-02       2.450291652531e+04 
       1.392864189690e-02       2.454344356114e+04 
       1.405894546449e-02       2.458172709728e+04 
       1.418928576557e-02       2.461797497941e+04 
       1.431966297394e-02       2.465227866537e+04 
       1.445007728570e-02       2.468437646291e+04 
       1.458052891887e-02       2.471455866960e+04 
       1.471101811317e-02       2.474277457415e+04 
       1.484154512982e-02       2.476906334574e+04 
       1.497211025133e-02       2.479340150804e+04 
       1.510271378131e-02       2.481589318665e+04 
       1.523335604439e-02       2.483646077650e+04 
       1.536403738605e-02       2.485516994923e+04 
       1.549475817256e-02       2.487206353252e+04 
       1.562551879093e-02       2.488718496794e+04 
       1.575631964883e-02       2.490046616625e+04 
       1.588716117459e-02       2.491124120047e+04 
       1.601804381721e-02       2.492194026668e+04 
       1.614896804638e-02       2.493005383785e+04 
       1.627993435250e-02       2.493641186350e+04 
       1.641094324680e-02       2.494124390327e+04 
       1.654199526133e-02       2.494430166034e+04 
       1.667309094917e-02       2.494587271060e+04 
       1.680423088444e-02       2.494569147229e+04 
       1.693541566254e-02       2.494411543981e+04 
       1.706664590022e-02       2.494087811725e+04 
       1.719792223581e-02       2.493603488736e+04 
       1.732924532938e-02       2.492978856637e+04 
       1.746061586297e-02       2.492200451919e+04 
       1.759203454078e-02       2.491289792164e+04 
       1.772350208945e-02       2.490162996793e+04 
       1.785501925829e-02       2.489012274669e+04 
       1.798658681957e-02       2.487659474553e+04 
       1.811820556881e-02       2.486096000298e+04 
       1.824987632508e-02       2.484543278799e+04 
       1.838159993133e-02       2.482707147325e+04 
       1.851337725472e-02       2.480893507894e+04 
       1.864520918700e-02       2.478816798860e+04 
       1.877709664488e-02       2.476717691790e+04 
       1.890904057040e-02       2.474436263290e+04 
       1.904104193135e-02       2.471969326897e+04 
       1.917310172173e-02       2.469450286824e+04 
       1.930522096213e-02       2.466881895419e+04 
       1.943740070026e-02       2.463998503917e+04 
       1.956964201137e-02       2.461237144273e+04 
       1.970194599879e-02       2.458233007586e+04 
       1.983431379441e-02       2.455022384921e+04 
       1.996674655928e-02       2.451905816128e+04 
       2.009924548407e-02       2.448575179728e+04 
       2.023181178973e-02       2.445138576337e+04 
       2.036444672803e-02       2.441511899001e+04 
       2.049715158220e-02       2.437870130222e+04 
       2.062992766756e-02       2.434164249241e+04 
       2.076277633216e-02       2.430353315913e+04 
       2.089569895749e-02       2.426403160534e+04 
       2.102869695916e-02       2.422265664421e+04 
       2.116177178761e-02       2.418219574720e+04 
       2.129492492888e-02       2.413888779353e+04 
       2.142815790536e-02       2.409569896104e+04 
       2.156147227663e-02       2.405248547476e+04 
       2.169486964019e-02       2.400661536990e+04 
       2.182835163242e-02       2.396148426620e+04 
       2.196191992934e-02       2.391392911421e+04 
       2.209557624760e-02       2.386635370984e+04 
       2.222932234536e-02       2.381789675636e+04 
       2.236316002325e-02       2.376868607835e+04 
       2.249709112538e-02       2.371853264111e+04 
       2.263111754033e-02       2.366781384068e+04 
       2.276524120221e-02       2.361619017496e+04 
       2.289946409177e-02       2.356403752466e+04 
       2.303378823745e-02       2.351165355678e+04 
       2.316821571661e-02       2.345714384927e+04 
       2.330274865667e-02       2.340270457549e+04 
       2.343738923631e-02       2.334827518572e+04 
       2.357213968682e-02       2.329180087477e+04 
       2.370700229330e-02       2.323539447723e+04 
       2.384197939609e-02       2.317836127144e+04 
       2.397707339208e-02       2.312063857430e+04 
       2.411228673622e-02       2.306230774644e+04 
       2.424762194292e-02       2.300337171069e+04 
       2.438308158763e-02       2.294383519723e+04 
       2.451866830837e-02       2.288364037810e+04 
       2.465438480739e-02       2.282348521635e+04 
       2.479023385282e-02       2.276244719929e+04 
       2.492621828040e-02       2.270076077709e+04 
       2.506234099528e-02       2.263832447415e+04 
       2.519860497385e-02       2.257515299099e+04 
       2.533501326566e-02       2.251184471320e+04 
       2.547156899538e-02       2.244814018351e+04 
       2.560827536482e-02       2.238387466921e+04 
       2.574513565507e-02       2.231957654439e+04 
       2.588215322864e-02       2.225424429012e+04 
       2.601933153170e-02       2.218860899378e+04 
       2.615667409644e-02       2.212263116979e+04 
       2.629418454344e-02       2.205629250021e+04 
       2.643186658418e-02       2.198952056344e+04 
       2.656972402357e-02       2.192283176871e+04 
       2.670776076267e-02       2.185489087442e+04 
       2.684598080139e-02       2.178703674255e+04 
       2.698438824137e-02       2.171880859309e+04 
       2.712298728892e-02       2.165028398081e+04 
       2.726178225809e-02       2.158172452951e+04 
       2.740077757385e-02       2.151213286881e+04 
       2.753997777532e-02       2.144298204342e+04 
       2.767938751924e-02       2.137311189886e+04 
       2.781901158345e-02       2.130264394031e+04 
       2.795885487057e-02       2.123229291583e+04 
       2.809892241179e-02       2.116158512104e+04 
       2.823921937081e-02       2.109087176393e+04 
       2.837975104793e-02       2.101945155833e+04 
       2.852052288428e-02       2.094816190300e+04 
       2.866154046624e-02       2.087636011612e+04 
       2.880280952999e-02       2.080446815725e+04 
       2.894433596630e-02       2.073244319097e+04 
       2.908612582545e-02       2.066015454949e+04 
       2.922818532235e-02       2.058758973178e+04 
       2.937052084192e-02       2.051500016776e+04 
       2.951313894461e-02       2.044202666911e+04 
       2.965604637221e-02       2.036901653992e+04 
       2.979925005384e-02       2.029578898112e+04 
       2.994275711222e-02       2.022248593863e+04 
       3.008657487021e-02       2.014923112970e+04 
       3.023071085760e-02       2.007531516588e+04 
       3.037517281820e-02       2.000151077459e+04 
       3.051996871721e-02       1.992757445499e+04 
       3.066510674895e-02       1.985357815864e+04 
       3.081059534487e-02       1.977977068133e+04 
       3.095644318197e-02       1.970515637982e+04 
       3.110265919153e-02       1.963108225381e+04 
       3.124925256829e-02       1.955634265625e+04 
       3.139623277998e-02       1.948180432806e+04 
       3.154360957732e-02       1.940717785031e+04 
       3.169139300451e-02       1.933252258258e+04 
       3.183959341008e-02       1.925781824400e+04 
       3.198822145842e-02       1.918295246599e+04 
       3.213728814169e-02       1.910810359337e+04 
       3.228680479240e-02       1.903314936836e+04 
       3.243678309655e-02       1.895846951684e+04 
       3.258723510742e-02       1.888311635952e+04 
       3.273817326001e-02       1.880837978619e+04 
       3.288961038620e-02       1.873330352512e+04 
       3.304155973072e-02       1.865793602456e+04 
       3.319403496781e-02       1.858289644324e+04 
       3.334705021886e-02       1.850765334794e+04 
       3.350062007082e-02       1.843249757946e+04 
       3.365475959568e-02       1.835740149974e+04 
       3.380948437090e-02       1.828225944602e+04 
       3.396481050092e-02       1.820715574131e+04 
       3.412075463991e-02       1.813191649384e+04 
       3.427733401561e-02       1.805657888693e+04 
       3.443456645456e-02       1.798170576895e+04 
       3.459247040876e-02       1.790649302932e+04 
       3.475106498368e-02       1.783133014051e+04 
       3.491036996800e-02       1.775607715820e+04 
       3.507040586497e-02       1.768103198359e+04 
       3.523119392558e-02       1.760574608692e+04 
       3.539275618369e-02       1.753066891461e+04 
       3.555511549321e-02       1.745577501195e+04 
       3.571829556756e-02       1.738086857404e+04 
       3.588232102141e-02       1.730575465855e+04 
       3.604721741509e-02       1.723083585968e+04 
       3.621301130167e-02       1.715587245473e+04 
       3.637973027701e-02       1.708094659136e+04 
       3.654740303300e-02       1.700604989161e+04 
       3.671605941423e-02       1.693141402811e+04 
       3.688573047827e-02       1.685666505094e+04 
       3.705644856005e-02       1.678177762435e+04 
       3.722824734040e-02       1.670723732080e+04 
       3.740116191931e-02       1.663256939648e+04 
       3.757522889420e-02       1.655776684317e+04 
       3.775048644357e-02       1.648321433144e+04 
       3.792697441660e-02       1.640865826422e+04 
       3.810473442907e-02       1.633409260840e+04 
       3.828380996631e-02       1.625962032460e+04 
       3.846424649357e-02       1.618531424096e+04 
       3.864609157475e-02       1.611074025025e+04 
       3.882939499992e-02       1.603652741607e+04 
       3.901420892275e-02       1.596194760623e+04 
       3.920058800850e-02       1.588760244083e+04 
       3.938858959378e-02       1.581336099880e+04 
       3.957827385898e-02       1.573886584830e+04 
       3.976970401485e-02       1.566453116521e+04 
       3.996294650434e-02       1.559028951229e+04 
       4.015807122152e-02       1.551594166390e+04 
       4.035515174898e-02       1.544164592708e+04 
       4.055426561600e-02       1.536745740072e+04 
       4.075549457923e-02       1.529306141803e+04 
       4.095892492872e-02       1.521871268653e+04 
       4.116464782163e-02       1.514423280131e+04 
       4.137275964700e-02       1.507004059352e+04 
       4.158336242486e-02       1.499561869085e+04 
       4.179656424364e-02       1.492085872712e+04 
       4.201247974035e-02       1.484655395279e+04 
       4.223123062861e-02       1.477185490668e+04 
       4.245294628013e-02       1.469734964270e+04 
       4.267776436646e-02       1.462265146224e+04 
       4.290583156821e-02       1.454767384848e+04 
       4.313730436064e-02       1.447274203916e+04 
       4.337234988535e-02       1.439790788576e+04 
       4.361114691948e-02       1.432253044381e+04 
       4.385388695576e-02       1.424726079420e+04 
       4.410077540846e-02       1.417178782273e+04 
       4.435203296321e-02       1.409621170716e+04 
       4.460789709126e-02       1.402036506094e+04 
       4.486862375243e-02       1.394435186996e+04 
       4.513448931506e-02       1.386809338431e+04 
       4.540579272641e-02       1.379176420983e+04 
       4.568285797285e-02       1.371490244069e+04 
       4.596603687650e-02       1.363792011162e+04 
       4.625571228375e-02       1.356059306667e+04 
       4.655230171192e-02       1.348312594708e+04 
       4.685626153311e-02       1.340502064470e+04 
       4.716809179061e-02       1.332652465792e+04 
       4.748834176274e-02       1.324764315874e+04 
       4.781761641342e-02       1.316791557533e+04 
       4.815658389905e-02       1.308802902965e+04 
       4.850598433878e-02       1.300745730722e+04 
       4.886664010262e-02       1.292621349817e+04 
       4.923946793082e-02       1.284430361373e+04 
       4.962549327292e-02       1.276168380502e+04 
       5.002586732910e-02       1.267811664334e+04 
       5.044188739679e-02       1.259364465642e+04 
       5.087502127811e-02       1.250879019203e+04 
       5.132693669843e-02       1.242161725721e+04 
       5.179953693484e-02       1.233439035709e+04 
       5.229500416846e-02       1.224506262065e+04 
       5.281585247441e-02       1.215413082042e+04 
       5.336499286254e-02       1.206123529493e+04 
       5.394581339546e-02       1.196645998801e+04 
       5.456227813874e-02       1.186981775315e+04 
       5.521904950781e-02       1.176957554259e+04 
       5.592163936291e-02       1.166671198293e+04 
       5.667659470411e-02       1.156020132375e+04 
       5.749172346007e-02       1.144923988109e+04 
       5.837636346670e-02       1.133262478655e+04 
       5.934169100152e-02       1.120944305781e+04 
       6.040104995254e-02       1.107863824909e+04 
       6.157025168420e-02       1.093661530269e+04 
       6.286773835775e-02       1.078222167141e+04 
