# dimensionless total [l(l+1)/2pi] C_l's
# for l=2 to 2500, i.e. number of multipoles equal to 2499
#
# -> if you prefer output in CAMB/HealPix/LensPix units/order, set 'format' to 'camb' in input file
# -> if you don't want to see such a header, set 'headers' to 'no' in input file
# -> for CMB lensing (phi), these are C_l^phi-phi for the lensing potential.
#    Remember the conversion factors:
#    C_l^dd (deflection) = l(l+1) C_l^phi-phi
#    C_l^gg (shear/convergence) = 1/4 (l(l+1))^2 C_l^phi-phi
#
# 1:l     2:TT                     3:EE                     4:TE                     5:BB                     6:phiphi                 7:TPhi                   8:Ephi               
    2       1.415195316269e-10       4.276093726056e-15       3.634340604301e-13       0.000000000000e+00       8.393863820605e-09       4.578622502209e-10      -1.898722115888e-12 
    3       1.339006724729e-10       5.491152123171e-15       4.073696290071e-13       0.000000000000e+00       5.206386679003e-09       3.251070277092e-10      -1.438471419598e-12 
    4       1.266658499677e-10       4.756085071099e-15       3.796874986458e-13       0.000000000000e+00       3.624506413677e-09       2.461635310880e-10      -9.438512763171e-13 
    5       1.212271474506e-10       3.170303141352e-15       3.219776135093e-13       0.000000000000e+00       2.704569266310e-09       1.943430001253e-10      -5.271079343305e-13 
    6       1.174680250605e-10       1.759202945373e-15       2.576097153360e-13       0.000000000000e+00       2.110417492489e-09       1.580536148995e-10      -2.191086849727e-13 
    7       1.150437867569e-10       9.307211967102e-16       2.001207654873e-13       0.000000000000e+00       1.701318063421e-09       1.314922948062e-10      -2.154552995610e-14 
    8       1.135731189144e-10       5.840797067978e-16       1.555075382759e-13       0.000000000000e+00       1.406049844522e-09       1.113759271832e-10       8.050211555052e-14 
    9       1.128493452340e-10       4.620550902230e-16       1.251068898666e-13       0.000000000000e+00       1.184353415507e-09       9.573782040197e-11       1.104929638320e-13 
   10       1.126933277360e-10       3.905833389998e-16       1.074915358691e-13       0.000000000000e+00       1.012575378671e-09       8.332887575179e-11       9.456917931585e-14 
   11       1.129531229102e-10       3.225129054422e-16       9.997356651698e-14       0.000000000000e+00       8.527473715467e-10       7.354000436485e-11       5.715317084453e-14 
   12       1.134861633179e-10       2.723286363689e-16       9.958522561711e-14       0.000000000000e+00       7.450866069336e-10       6.523959568340e-11       1.677230635552e-14 
   13       1.143205355115e-10       2.519053531333e-16       1.036030735375e-13       0.000000000000e+00       6.567095407915e-10       5.804327799345e-11      -1.497436708202e-14 
   14       1.153545943411e-10       2.536377496893e-16       1.098666627435e-13       0.000000000000e+00       5.831793743857e-10       5.212317017717e-11      -3.250483964303e-14 
   15       1.165302628868e-10       2.650991573000e-16       1.170231954951e-13       0.000000000000e+00       5.212963397758e-10       4.714883434231e-11      -3.621166318603e-14 
   16       1.178753139865e-10       2.830034464808e-16       1.244187870896e-13       0.000000000000e+00       4.686843950847e-10       4.272420385762e-11      -3.011812107059e-14 
   17       1.193267150770e-10       3.125904722635e-16       1.318987053773e-13       0.000000000000e+00       4.235507100431e-10       3.883779856257e-11      -1.926026970582e-14 
   18       1.208638619553e-10       3.595697590405e-16       1.396003718546e-13       0.000000000000e+00       3.843769784602e-10       3.545648422538e-11      -8.593944451755e-15 
   19       1.225098868633e-10       4.245721974889e-16       1.477627287997e-13       0.000000000000e+00       3.505435856356e-10       3.254557388084e-11      -8.557496477986e-16 
   20       1.242370623633e-10       5.058619585098e-16       1.566102986699e-13       0.000000000000e+00       3.207456927381e-10       2.999830735483e-11       2.080765417710e-15 
   21       1.260415351984e-10       6.024393054707e-16       1.661194190799e-13       0.000000000000e+00       2.945151200479e-10       2.774278649981e-11       6.913317222706e-16 
   22       1.278962746463e-10       7.132894515309e-16       1.761031495819e-13       0.000000000000e+00       2.712243019131e-10       2.568800547685e-11      -3.338438303193e-15 
   23       1.298069644627e-10       8.386315505954e-16       1.862277153734e-13       0.000000000000e+00       2.505528667831e-10       2.384212456082e-11      -8.254929020593e-15 
   24       1.317679156558e-10       9.788564626478e-16       1.960706782159e-13       0.000000000000e+00       2.320226820044e-10       2.221712718409e-11      -1.216191013951e-14 
   25       1.337795749878e-10       1.133766411432e-15       2.053579431916e-13       0.000000000000e+00       2.154155282730e-10       2.077405992245e-11      -1.420984920004e-14 
   26       1.358295782324e-10       1.303201292017e-15       2.138592925574e-13       0.000000000000e+00       2.004307137904e-10       1.944550018374e-11      -1.404389377711e-14 
   27       1.379197834198e-10       1.488887193409e-15       2.214471220855e-13       0.000000000000e+00       1.868892336197e-10       1.821639984742e-11      -1.224128713908e-14 
   28       1.400465892811e-10       1.693146767459e-15       2.280551774530e-13       0.000000000000e+00       1.745585535675e-10       1.708071721208e-11      -9.761249574716e-15 
   29       1.422171442845e-10       1.917370796963e-15       2.337409070620e-13       0.000000000000e+00       1.633755249566e-10       1.604179219182e-11      -7.239705845843e-15 
   30       1.444292183939e-10       2.162682263429e-15       2.386380473810e-13       0.000000000000e+00       1.532194147520e-10       1.509759276594e-11      -5.327869829438e-15 
   31       1.466697825302e-10       2.430141822382e-15       2.428879145734e-13       0.000000000000e+00       1.438824260824e-10       1.423764446551e-11      -4.634353084207e-15 
   32       1.489420251901e-10       2.720502866366e-15       2.464618782084e-13       0.000000000000e+00       1.353165246714e-10       1.345530703725e-11      -5.013666925454e-15 
   33       1.512457463400e-10       3.034350072094e-15       2.492722498491e-13       0.000000000000e+00       1.274616452208e-10       1.273836008754e-11      -5.999601531374e-15 
   34       1.535742294276e-10       3.372235403442e-15       2.512131223056e-13       0.000000000000e+00       1.202083726355e-10       1.207015022964e-11      -7.065764000278e-15 
   35       1.559325249813e-10       3.734966568711e-15       2.521475325606e-13       0.000000000000e+00       1.135195712134e-10       1.144785255460e-11      -7.933008870826e-15 
   36       1.583238656396e-10       4.123412622628e-15       2.519131493069e-13       0.000000000000e+00       1.073413818114e-10       1.086968779134e-11      -8.360976052368e-15 
   37       1.607461979836e-10       4.538409158960e-15       2.503587995515e-13       0.000000000000e+00       1.015932051117e-10       1.033135612918e-11      -8.148792923194e-15 
   38       1.631997650822e-10       4.980700331203e-15       2.474638900184e-13       0.000000000000e+00       9.626020483168e-11       9.831682882055e-12      -7.425079845173e-15 
   39       1.656807786152e-10       5.450972795964e-15       2.432589151718e-13       0.000000000000e+00       9.132554699508e-11       9.368312779266e-12      -6.456884889127e-15 
   40       1.681785308688e-10       5.949866925011e-15       2.377951540122e-13       0.000000000000e+00       8.674227045784e-11       8.935865105557e-12      -5.577581309014e-15 
   41       1.706810605798e-10       6.477996486624e-15       2.311238325275e-13       0.000000000000e+00       8.244965712539e-11       8.527810321164e-12      -5.102040172182e-15 
   42       1.731959789082e-10       7.036023499240e-15       2.232223286143e-13       0.000000000000e+00       7.843507048256e-11       8.143460621441e-12      -5.028591090174e-15 
   43       1.757352956302e-10       7.624602071004e-15       2.140461318324e-13       0.000000000000e+00       7.468782345146e-11       7.782816753611e-12      -5.247283509606e-15 
   44       1.783094386447e-10       8.244355696564e-15       2.035486889725e-13       0.000000000000e+00       7.118061887035e-11       7.444515998052e-12      -5.618853323506e-15 
   45       1.809257037276e-10       8.895871642022e-15       1.916831016954e-13       0.000000000000e+00       6.787929819988e-11       7.126455055528e-12      -6.003853127267e-15 
   46       1.835836053761e-10       9.579686325447e-15       1.784083549384e-13       0.000000000000e+00       6.477867880654e-11       6.828148220605e-12      -6.364740671326e-15 
   47       1.862777359613e-10       1.029629251412e-14       1.636845677830e-13       0.000000000000e+00       6.187518155572e-11       6.548881151659e-12      -6.691197802777e-15 
   48       1.889986572389e-10       1.104614080443e-14       1.474711211169e-13       0.000000000000e+00       5.915602326015e-11       6.286966455080e-12      -6.971773971598e-15 
   49       1.917325894115e-10       1.182963760788e-14       1.297265433393e-13       0.000000000000e+00       5.659853209551e-11       6.039672600382e-12      -7.193839193014e-15 
   50       1.944664002476e-10       1.264713068609e-14       1.104107106447e-13       0.000000000000e+00       5.417697947598e-11       5.804059463850e-12      -7.349388022915e-15 
   51       1.972048903285e-10       1.349886579963e-14       8.949241713340e-14       0.000000000000e+00       5.188685011686e-11       5.579917250411e-12      -7.454417883539e-15 
   52       1.999576622118e-10       1.438501481064e-14       6.694366195475e-14       0.000000000000e+00       4.972597646004e-11       5.367502434284e-12      -7.534729457811e-15 
   53       2.027341703875e-10       1.530568456709e-14       4.273750907365e-14       0.000000000000e+00       4.768727497638e-11       5.166673107464e-12      -7.620758294408e-15 
   54       2.055436597544e-10       1.626091430281e-14       1.684808189618e-14       0.000000000000e+00       4.575841529710e-11       4.976860559694e-12      -7.747803111915e-15 
   55       2.083937227664e-10       1.725072704858e-14      -1.074722015648e-14       0.000000000000e+00       4.392558169748e-11       4.797276364801e-12      -7.945971782429e-15 
   56       2.112856920727e-10       1.827530477762e-14      -4.006041479290e-14       0.000000000000e+00       4.218660978783e-11       4.627658990674e-12      -8.206571453506e-15 
   57       2.142179955487e-10       1.933485221600e-14      -7.109843794026e-14       0.000000000000e+00       4.054053371614e-11       4.467662883335e-12      -8.507768903630e-15 
   58       2.171873245163e-10       2.042954615884e-14      -1.038651272295e-13       0.000000000000e+00       3.898361204298e-11       4.316620385092e-12      -8.823972782400e-15 
   59       2.201885184037e-10       2.155953497469e-14      -1.383611407999e-13       0.000000000000e+00       3.750915631513e-11       4.173522490089e-12      -9.125661304794e-15 
   60       2.232144494042e-10       2.272493810990e-14      -1.745838761044e-13       0.000000000000e+00       3.610735963927e-11       4.036999599862e-12      -9.379209945439e-15 
   61       2.262582872379e-10       2.392576383763e-14      -2.125282764165e-13       0.000000000000e+00       3.476802047677e-11       3.905689102686e-12      -9.554630235821e-15 
   62       2.293211484090e-10       2.516164205211e-14      -2.521896455832e-13       0.000000000000e+00       3.348981628304e-11       3.779478062517e-12      -9.651205810792e-15 
   63       2.324059670457e-10       2.643203034473e-14      -2.935613238667e-13       0.000000000000e+00       3.227281671019e-11       3.658506584733e-12      -9.677331075930e-15 
   64       2.355152272720e-10       2.773628743847e-14      -3.366338040143e-13       0.000000000000e+00       3.111569408014e-11       3.542798773328e-12      -9.643185022351e-15 
   65       2.386509233853e-10       2.907367009822e-14      -3.813946782298e-13       0.000000000000e+00       3.001564382143e-11       3.432255760088e-12      -9.560809934291e-15 
   66       2.418145200348e-10       3.044333004117e-14      -4.278285851438e-13       0.000000000000e+00       2.896830490614e-11       3.326648733768e-12      -9.444190096688e-15 
   67       2.450069123993e-10       3.184431084711e-14      -4.759171567850e-13       0.000000000000e+00       2.796768028666e-11       3.225611969274e-12      -9.309330502756e-15 
   68       2.482287360319e-10       3.327566827939e-14      -5.256413531557e-13       0.000000000000e+00       2.700773867326e-11       3.128753907814e-12      -9.171199854453e-15 
   69       2.514814583148e-10       3.473686646492e-14      -5.769891338050e-13       0.000000000000e+00       2.608777460264e-11       3.036032115711e-12      -9.033664335259e-15 
   70       2.547664376401e-10       3.622745680909e-14      -6.299492525971e-13       0.000000000000e+00       2.520799651983e-11       2.947442128517e-12      -8.897646176897e-15 
   71       2.580845629854e-10       3.774696175346e-14      -6.845090155352e-13       0.000000000000e+00       2.436790562780e-11       2.862902241636e-12      -8.764077433410e-15 
   72       2.614362230342e-10       3.929487484238e-14      -7.406542887970e-13       0.000000000000e+00       2.356625932530e-11       2.782249558710e-12      -8.633898491632e-15 
   73       2.648212752971e-10       4.087066078961e-14      -7.983695067694e-13       0.000000000000e+00       2.280103464473e-11       2.705236040001e-12      -8.508056581658e-15 
   74       2.682390152325e-10       4.247375554493e-14      -8.576376800836e-13       0.000000000000e+00       2.206939169010e-11       2.631524550775e-12      -8.387504287302e-15 
   75       2.716881453675e-10       4.410356636081e-14      -9.184404036501e-13       0.000000000000e+00       2.136763707482e-11       2.560684909692e-12      -8.273198056576e-15 
   76       2.751673754366e-10       4.575940659310e-14      -9.807562009188e-13       0.000000000000e+00       2.069214076418e-11       2.492299120242e-12      -8.165837900668e-15 
   77       2.786774174022e-10       4.744028622983e-14      -1.044555190321e-12       0.000000000000e+00       2.004236044339e-11       2.426307954201e-12      -8.065034983359e-15 
   78       2.822192998246e-10       4.914508310793e-14      -1.109803456308e-12       0.000000000000e+00       1.941830479398e-11       2.362720683691e-12      -7.969988826107e-15 
   79       2.857937514694e-10       5.087260353926e-14      -1.176464601179e-12       0.000000000000e+00       1.881961227913e-11       2.301509819922e-12      -7.879725966559e-15 
   80       2.894011833674e-10       5.262158103894e-14      -1.244499719004e-12       0.000000000000e+00       1.824553413190e-11       2.242609400466e-12      -7.793093161871e-15 
   81       2.930416708754e-10       5.439067505360e-14      -1.313867369537e-12       0.000000000000e+00       1.769491734346e-11       2.185913276530e-12      -7.708750592044e-15 
   82       2.967149357360e-10       5.617846968973e-14      -1.384523552137e-12       0.000000000000e+00       1.716618765129e-11       2.131273400225e-12      -7.625165063248e-15 
   83       3.004203281389e-10       5.798347244192e-14      -1.456421679685e-12       0.000000000000e+00       1.665733252742e-11       2.078498111842e-12      -7.540603211153e-15 
   84       3.041571724058e-10       5.980417871358e-14      -1.529514484422e-12       0.000000000000e+00       1.616639035526e-11       2.027401863354e-12      -7.453666993189e-15 
   85       3.079259091898e-10       6.163928045422e-14      -1.603760155614e-12       0.000000000000e+00       1.569304840064e-11       1.977967611778e-12      -7.365017051824e-15 
   86       3.117271106181e-10       6.348748993901e-14      -1.679117176292e-12       0.000000000000e+00       1.523727979198e-11       1.930208332160e-12      -7.275923915395e-15 
   87       3.155611218475e-10       6.534747688811e-14      -1.755542488094e-12       0.000000000000e+00       1.479885250606e-11       1.884117139214e-12      -7.187753394188e-15 
   88       3.194280492368e-10       6.721786830078e-14      -1.832991497648e-12       0.000000000000e+00       1.437732086363e-11       1.839666439058e-12      -7.101968897856e-15 
   89       3.233277485181e-10       6.909724828935e-14      -1.911418082963e-12       0.000000000000e+00       1.397201702502e-11       1.796807080969e-12      -7.020133752854e-15 
   90       3.272598129686e-10       7.098415791334e-14      -1.990774599816e-12       0.000000000000e+00       1.358204248568e-11       1.755467509125e-12      -6.943913519863e-15 
   91       3.312235615826e-10       7.287709501347e-14      -2.071011888136e-12       0.000000000000e+00       1.320625957180e-11       1.715552914352e-12      -6.875078311218e-15 
   92       3.352180272429e-10       7.477451404574e-14      -2.152079278393e-12       0.000000000000e+00       1.284328293590e-11       1.676944385870e-12      -6.815505108341e-15 
   93       3.392422860621e-10       7.667484610212e-14      -2.233924670765e-12       0.000000000000e+00       1.249180822844e-11       1.639527688261e-12      -6.766656241574e-15 
   94       3.432965277566e-10       7.857656277768e-14      -2.316494772374e-12       0.000000000000e+00       1.215167313024e-11       1.603286385690e-12      -6.727920072251e-15 
   95       3.473811251372e-10       8.047812164696e-14      -2.399734907702e-12       0.000000000000e+00       1.182294091812e-11       1.568221220408e-12      -6.698023872562e-15 
   96       3.514963002336e-10       8.237794704284e-14      -2.483588956286e-12       0.000000000000e+00       1.150557368363e-11       1.534321299807e-12      -6.675530618820e-15 
   97       3.556421171498e-10       8.427443016769e-14      -2.567999360098e-12       0.000000000000e+00       1.119942845700e-11       1.501563654827e-12      -6.658834118255e-15 
   98       3.598184749190e-10       8.616592920451e-14      -2.652907130933e-12       0.000000000000e+00       1.090425333106e-11       1.469912798360e-12      -6.646154135810e-15 
   99       3.640251003584e-10       8.805076942808e-14      -2.738251857797e-12       0.000000000000e+00       1.061968358521e-11       1.439320283661e-12      -6.635531520934e-15 
  100       3.682615409242e-10       8.992724331614e-14      -2.823971714290e-12       0.000000000000e+00       1.034523780939e-11       1.409724262753e-12      -6.624823334383e-15 
  101       3.725271575663e-10       9.179361066048e-14      -2.910003465996e-12       0.000000000000e+00       1.008031402797e-11       1.381049044833e-12      -6.611697975009e-15 
  102       3.768211175834e-10       9.364809867814e-14      -2.996282477865e-12       0.000000000000e+00       9.824185823762e-12       1.353204654679e-12      -6.593630306559e-15 
  103       3.811423874781e-10       9.548890212255e-14      -3.082742721604e-12       0.000000000000e+00       9.575998461935e-12       1.326086391059e-12      -6.567896784471e-15 
  104       3.854899647253e-10       9.731423009121e-14      -3.169317693612e-12       0.000000000000e+00       9.334962644847e-12       1.299599401918e-12      -6.532214517033e-15 
  105       3.898636241257e-10       9.912245341053e-14      -3.255943294118e-12       0.000000000000e+00       9.100973933378e-12       1.273737141883e-12      -6.486767262116e-15 
  106       3.942632594231e-10       1.009119774605e-13      -3.342555352555e-12       0.000000000000e+00       8.874070163850e-12       1.248512739305e-12      -6.432445302094e-15 
  107       3.986886489281e-10       1.026811978726e-13      -3.429088768919e-12       0.000000000000e+00       8.654239605478e-12       1.223934761233e-12      -6.370228125372e-15 
