# Matter power spectrum P(k) at redshift z=0
# for k=1.05351e-05 to 1.4771 h/Mpc,
# number of wavenumbers equal to 630
#    1:k (h/Mpc)              2:P (Mpc/h)^3        
       1.053514489394e-05       4.187309115166e+01 
       2.276952149661e-05       8.824675443782e+01 
       3.504418898514e-05       1.339150750961e+02 
       4.738893813972e-05       1.793054127271e+02 
       5.983401632858e-05       2.246664124386e+02 
       7.241037091073e-05       2.701860857846e+02 
       8.514989983161e-05       3.160257706041e+02 
       9.808571243705e-05       3.623341784847e+02 
       1.112524035555e-04       4.092546100668e+02 
       1.246863439267e-04       4.569293081193e+02 
       1.384259900706e-04       5.055024552692e+02 
       1.525122166718e-04       5.551224809466e+02 
       1.669886744758e-04       6.059734422615e+02 
       1.819021765092e-04       6.581604445440e+02 
       1.973031151031e-04       7.118842935234e+02 
       2.132459116389e-04       7.678957300682e+02 
       2.297895000668e-04       8.252806181048e+02 
       2.469978439483e-04       8.848231999296e+02 
       2.649404849051e-04       9.466858409464e+02 
       2.836931177317e-04       1.011137307904e+03 
       3.033381838509e-04       1.078583108375e+03 
       3.239654700076e-04       1.149660065315e+03 
       3.456726928723e-04       1.223589940571e+03 
       3.685660423245e-04       1.301325512258e+03 
       3.927606464695e-04       1.383139118985e+03 
       4.183809099171e-04       1.469496899492e+03 
       4.455606638385e-04       1.561408128204e+03 
       4.744430526012e-04       1.659072005581e+03 
       5.051800688206e-04       1.761828018547e+03 
       5.379316388038e-04       1.871106146270e+03 
       5.728641569774e-04       1.987294402811e+03 
       6.101483752873e-04       2.110388593716e+03 
       6.499565766402e-04       2.241443558943e+03 
       6.924590046822e-04       2.380459857184e+03 
       7.378195881228e-04       2.528097453736e+03 
       7.861910849441e-04       2.684365057998e+03 
       8.377098726955e-04       2.849754596303e+03 
       8.924907110840e-04       3.024988611769e+03 
       9.506218815556e-04       3.209675078778e+03 
       1.012161142703e-03       3.403550042133e+03 
       1.077132911743e-03       3.606954651633e+03 
       1.145526984429e-03       3.819003931437e+03 
       1.217298948904e-03       4.039764813614e+03 
       1.292372260017e-03       4.268693358758e+03 
       1.370641756340e-03       4.504899963633e+03 
       1.451978258319e-03       4.747986814757e+03 
       1.477104874446e-03       4.822477575784e+03 
       1.536233807048e-03       4.997073011311e+03 
       1.623247095736e-03       5.251605918869e+03 
       1.712848699802e-03       5.510992044435e+03 
       1.804865805338e-03       5.774054593037e+03 
       1.899126244962e-03       6.040372574557e+03 
       1.995461754027e-03       6.309059131100e+03 
       2.093710445222e-03       6.579743809056e+03 
       2.193718559903e-03       6.851547229995e+03 
       2.295341590445e-03       7.124041922735e+03 
       2.398444883441e-03       7.396728595552e+03 
       2.502903834241e-03       7.669176850140e+03 
       2.608603774488e-03       7.940886523039e+03 
       2.715439640535e-03       8.355929150794e+03 
       2.823315495008e-03       8.692112237223e+03 
       2.932143958664e-03       8.867883137525e+03 
       3.041845596008e-03       9.160546638484e+03 
       3.152348286598e-03       9.343731069454e+03 
       3.263586604583e-03       9.624661707143e+03 
       3.375501221648e-03       9.944850711037e+03 
       3.488038342943e-03       1.014899149992e+04 
       3.601149181428e-03       1.040202723685e+04 
       3.714789473065e-03       1.068221371293e+04 
       3.828919033235e-03       1.090254029051e+04 
       3.943501353323e-03       1.114887502032e+04 
       4.058503235560e-03       1.140264071989e+04 
       4.173894463652e-03       1.163228259362e+04 
       4.289647506486e-03       1.187502323581e+04 
       4.405737252111e-03       1.210735409665e+04 
       4.522140769227e-03       1.234022427401e+04 
       4.638837093523e-03       1.256499755186e+04 
       4.755807036394e-03       1.278949883771e+04 
       4.873033013702e-03       1.301015060107e+04 
       4.990498892495e-03       1.322662437388e+04 
       5.108189853752e-03       1.343990974543e+04 
       5.226092269422e-03       1.365055139989e+04 
       5.344193592215e-03       1.385666712361e+04 
       5.462482256738e-03       1.406034729314e+04 
       5.580947590751e-03       1.425950929014e+04 
       5.699579735426e-03       1.445532733925e+04 
       5.818369573632e-03       1.465032650839e+04 
       5.937308665381e-03       1.483942778318e+04 
       6.056389189646e-03       1.502528201888e+04 
       6.175603891876e-03       1.520913655053e+04 
       6.294946036600e-03       1.538847988818e+04 
       6.414409364576e-03       1.556453742454e+04 
       6.533988054002e-03       1.573986877131e+04 
       6.653676685374e-03       1.590960087896e+04 
       6.773470209610e-03       1.607627157610e+04 
       6.893363919100e-03       1.624070721117e+04 
       7.013353421389e-03       1.640113644484e+04 
       7.133434615225e-03       1.655849283205e+04 
       7.253603668739e-03       1.671471441999e+04 
       7.373856999542e-03       1.686593461294e+04 
       7.494191256556e-03       1.701427698486e+04 
       7.614603303405e-03       1.716046971657e+04 
       7.735090203225e-03       1.730281841724e+04 
       7.855649204746e-03       1.744236167859e+04 
       7.976277729542e-03       1.757901919662e+04 
       8.096973360325e-03       1.771411688653e+04 
       8.217733830198e-03       1.784508924012e+04 
       8.338557012773e-03       1.797324108917e+04 
       8.459440913085e-03       1.809867103610e+04 
       8.580383659214e-03       1.822186809137e+04 
       8.701383494577e-03       1.834178748596e+04 
       8.822438770804e-03       1.845906639099e+04 
       8.943547941174e-03       1.857367999075e+04 
       9.064709554544e-03       1.868662399070e+04 
       9.185922249737e-03       1.879597844471e+04 
       9.307184750353e-03       1.890277093265e+04 
       9.428495859961e-03       1.900701631364e+04 
       9.549854457647e-03       1.910864108010e+04 
       9.671259493888e-03       1.920830010620e+04 
       9.792709986723e-03       1.930504860156e+04 
       9.914205018200e-03       1.939934817434e+04 
       1.003574373108e-02       1.949121273410e+04 
       1.015732532576e-02       1.958137391364e+04 
       1.027894905746e-02       1.966854176000e+04 
       1.040061423352e-02       1.975332711191e+04 
       1.052232021098e-02       1.983580226709e+04 
       1.064406639429e-02       1.991597321501e+04 
       1.076585223313e-02       1.999418050369e+04 
       1.088767722048e-02       2.006987336264e+04 
       1.100954089075e-02       2.014334478826e+04 
       1.113144281805e-02       2.021466518855e+04 
       1.125338261458e-02       2.028377885354e+04 
       1.137535992918e-02       2.035121417286e+04 
       1.149737444589e-02       2.041607953978e+04 
       1.161942588267e-02       2.047885341770e+04 
       1.174151399022e-02       2.053955406295e+04 
       1.186363855084e-02       2.059821065757e+04 
       1.198579937737e-02       2.065485361865e+04 
       1.210799631226e-02       2.070967992712e+04 
       1.223022922662e-02       2.076235701916e+04 
       1.235249801943e-02       2.081305713349e+04 
       1.247480261675e-02       2.086182789649e+04 
       1.259714297099e-02       2.090870684784e+04 
       1.271951906024e-02       2.095366641868e+04 
       1.284193088769e-02       2.099712141406e+04 
       1.296437848102e-02       2.103840339563e+04 
       1.308686189192e-02       2.107786840588e+04 
       1.320938119559e-02       2.111552703491e+04 
       1.333193649027e-02       2.115141070536e+04 
       1.345452789692e-02       2.118554651258e+04 
       1.357715555877e-02       2.121809270596e+04 
       1.369981964106e-02       2.124877554246e+04 
       1.382252033070e-02       2.127774861117e+04 
       1.394525783602e-02       2.130505189460e+04 
       1.406803238653e-02       2.133071723944e+04 
       1.419084423273e-02       2.135473030001e+04 
       1.431369364591e-02       2.137711259915e+04 
       1.443658091802e-02       2.139820006770e+04 
       1.455950636151e-02       2.141744498175e+04 
       1.468247030928e-02       2.143512440191e+04 
       1.477104874446e-02       2.144691089514e+04 
       1.480547311454e-02       2.145128096605e+04 
       1.492851515078e-02       2.146590192767e+04 
       1.505159681177e-02       2.147903145897e+04 
       1.517471851148e-02       2.149068512106e+04 
       1.529788068414e-02       2.150099418624e+04 
       1.542108378424e-02       2.150973344809e+04 
       1.554432828658e-02       2.151706095197e+04 
       1.566761468635e-02       2.152296879327e+04 
       1.579094349920e-02       2.152749735292e+04 
       1.591431526133e-02       2.153064749476e+04 
       1.603773052966e-02       2.153244302433e+04 
       1.616118988190e-02       2.153312945688e+04 
       1.628469391676e-02       2.153228606532e+04 
       1.640824325409e-02       2.153012922996e+04 
       1.653183853508e-02       2.152670331548e+04 
       1.665548042246e-02       2.152200087727e+04 
       1.677916960075e-02       2.151605989894e+04 
       1.690290677645e-02       2.150888295338e+04 
       1.702669267833e-02       2.150048688992e+04 
       1.715052805768e-02       2.149100818088e+04 
       1.727441368864e-02       2.148023924237e+04 
       1.739835036843e-02       2.146831585264e+04 
       1.752233891775e-02       2.145523659761e+04 
       1.764638018106e-02       2.144103639685e+04 
       1.777047502696e-02       2.142570207449e+04 
       1.789462434854e-02       2.140928269800e+04 
       1.801882906381e-02       2.139178846287e+04 
       1.814309011603e-02       2.137322343384e+04 
       1.826740847421e-02       2.135381993618e+04 
       1.839178513349e-02       2.133317997999e+04 
       1.851622111561e-02       2.131152209458e+04 
       1.864071746942e-02       2.128885701168e+04 
       1.876527527130e-02       2.126521405160e+04 
       1.888989562574e-02       2.124060094350e+04 
       1.901457966581e-02       2.121502389184e+04 
       1.913932855377e-02       2.118850035444e+04 
       1.926414348155e-02       2.116105093903e+04 
       1.938902567143e-02       2.113278824021e+04 
       1.951397637659e-02       2.110354721634e+04 
       1.963899688172e-02       2.107341371314e+04 
       1.976408850374e-02       2.104242623722e+04 
       1.988925259239e-02       2.101057871029e+04 
       2.001449053097e-02       2.097789613760e+04 
       2.013980373705e-02       2.094438871676e+04 
       2.026519366318e-02       2.091006950604e+04 
       2.039066179768e-02       2.087495924411e+04 
       2.051620966541e-02       2.083906788721e+04 
       2.064183882858e-02       2.080259483284e+04 
       2.076755088759e-02       2.076518623566e+04 
       2.089334748191e-02       2.072703001357e+04 
       2.101923029093e-02       2.068815386737e+04 
       2.114520103492e-02       2.064855402187e+04 
       2.127126147595e-02       2.060826272739e+04 
       2.139741341888e-02       2.056727077214e+04 
       2.152365871236e-02       2.052561229040e+04 
       2.164999924987e-02       2.048329171488e+04 
       2.177643697082e-02       2.044030901819e+04 
       2.190297386159e-02       2.039679340225e+04 
       2.202961195677e-02       2.035255081770e+04 
       2.215635334022e-02       2.030770632853e+04 
       2.228320014639e-02       2.026225034626e+04 
       2.241015456151e-02       2.021621345099e+04 
       2.253721882490e-02       2.016958947119e+04 
       2.266439523032e-02       2.012241117585e+04 
       2.279168612731e-02       2.007466701478e+04 
       2.291909392266e-02       2.002639204872e+04 
       2.304662108183e-02       1.997758562477e+04 
       2.317427013048e-02       1.992824988890e+04 
       2.330204365607e-02       1.987860244548e+04 
       2.342994430940e-02       1.982827120019e+04 
       2.355797480636e-02       1.977746218814e+04 
       2.368613792957e-02       1.972617228042e+04 
       2.381443653023e-02       1.967442259918e+04 
       2.394287352993e-02       1.962221577709e+04 
       2.407145192251e-02       1.956956809877e+04 
       2.420017477610e-02       1.951649022129e+04 
       2.432904523509e-02       1.946299599694e+04 
       2.445806652225e-02       1.940907931021e+04 
       2.458724194088e-02       1.935477468771e+04 
       2.471657487708e-02       1.930006955110e+04 
       2.484606880205e-02       1.924508249354e+04 
       2.497572727452e-02       1.918963079359e+04 
       2.510555394319e-02       1.913382493844e+04 
       2.523555254932e-02       1.907766164186e+04 
       2.536572692942e-02       1.902115901310e+04 
       2.549608101797e-02       1.896432499658e+04 
       2.562661885029e-02       1.890717067024e+04 
       2.575734456550e-02       1.884969185327e+04 
       2.588826240958e-02       1.879191798953e+04 
       2.601937673856e-02       1.873383939425e+04 
       2.615069202180e-02       1.867547431253e+04 
       2.628221284540e-02       1.861683322073e+04 
       2.641394391577e-02       1.855809546193e+04 
       2.654589006329e-02       1.849892607792e+04 
       2.667805624611e-02       1.843949664842e+04 
       2.681044755414e-02       1.837982726081e+04 
       2.694306921314e-02       1.831991224218e+04 
       2.707592658900e-02       1.825977307582e+04 
       2.720902519218e-02       1.819940870186e+04 
       2.734237068230e-02       1.813883264629e+04 
       2.747596887298e-02       1.807803969873e+04 
       2.760982573676e-02       1.801705557827e+04 
       2.774394741034e-02       1.795587107767e+04 
       2.787834019996e-02       1.789450499773e+04 
       2.801301058699e-02       1.783295738645e+04 
       2.814796523380e-02       1.777131803316e+04 
       2.828321098984e-02       1.770943743083e+04 
       2.841875489800e-02       1.764739000744e+04 
       2.855460420119e-02       1.758519648996e+04 
       2.869076634925e-02       1.752285656990e+04 
       2.882724900613e-02       1.746037805240e+04 
       2.896406005739e-02       1.739775533855e+04 
       2.910120761804e-02       1.733501357075e+04 
       2.923870004066e-02       1.727214764861e+04 
       2.937654592402e-02       1.720915552960e+04 
       2.951475412188e-02       1.714606690155e+04 
       2.965333375243e-02       1.708286289534e+04 
       2.979229420792e-02       1.701956793938e+04 
       2.993164516494e-02       1.695634055334e+04 
       3.007139659503e-02       1.689285889318e+04 
       3.021155877585e-02       1.682929703731e+04 
       3.035214230292e-02       1.676565465102e+04 
       3.049315810182e-02       1.670193426620e+04 
       3.063461744105e-02       1.663814197245e+04 
       3.077653194550e-02       1.657428934447e+04 
       3.091891361061e-02       1.651036670233e+04 
       3.106177481714e-02       1.644639039166e+04 
       3.120512834682e-02       1.638236725415e+04 
       3.134898739867e-02       1.631828388634e+04 
       3.149336560625e-02       1.625416106741e+04 
       3.163827705569e-02       1.618998739855e+04 
       3.178373630479e-02       1.612577535610e+04 
       3.192975840308e-02       1.606161412533e+04 
       3.207635891286e-02       1.599733315565e+04 
       3.222355393154e-02       1.593302982786e+04 
       3.237136011506e-02       1.586869610151e+04 
       3.251979470267e-02       1.580434107894e+04 
       3.266887554308e-02       1.573995641051e+04 
       3.281862112204e-02       1.567555946337e+04 
       3.296905059158e-02       1.561113475856e+04 
       3.312018380083e-02       1.554670252115e+04 
       3.327204132873e-02       1.548226177055e+04 
       3.342464451856e-02       1.541780025344e+04 
       3.357801551466e-02       1.535333880309e+04 
       3.373217730127e-02       1.528886710739e+04 
       3.388715374373e-02       1.522438239893e+04 
       3.404296963230e-02       1.516005985123e+04 
       3.419965072869e-02       1.509557382563e+04 
       3.435722381548e-02       1.503108614181e+04 
       3.451571674879e-02       1.496659020003e+04 
       3.467515851428e-02       1.490209841088e+04 
       3.483557928694e-02       1.483760107997e+04 
       3.499701049476e-02       1.477309963035e+04 
       3.515948488672e-02       1.470860292108e+04 
       3.532303660543e-02       1.464409632455e+04 
       3.548770126483e-02       1.457959383283e+04 
       3.565351603329e-02       1.451508377186e+04 
       3.582051972263e-02       1.445056691171e+04 
       3.598875288360e-02       1.438605094596e+04 
       3.615825790826e-02       1.432152651172e+04 
       3.632907914005e-02       1.425706872233e+04 
       3.650126299204e-02       1.419252269904e+04 
       3.667485807428e-02       1.412797091468e+04 
       3.684991533100e-02       1.406339783709e+04 
       3.702648818854e-02       1.399881003604e+04 
       3.720463271513e-02       1.393420575099e+04 
       3.738440779364e-02       1.386957213421e+04 
       3.756587530847e-02       1.380491945746e+04 
       3.774910034815e-02       1.374022801441e+04 
       3.793415142507e-02       1.367550803996e+04 
       3.812110071425e-02       1.361074926522e+04 
       3.831002431300e-02       1.354594075414e+04 
       3.850100252383e-02       1.348109407741e+04 
       3.869412016291e-02       1.341633577242e+04 
       3.888946689719e-02       1.335137378882e+04 
       3.908713761302e-02       1.328634284387e+04 
       3.928723282012e-02       1.322124483424e+04 
       3.948985909491e-02       1.315605997900e+04 
       3.969512956775e-02       1.309079412136e+04 
       3.990316445943e-02       1.302542465687e+04 
       4.011409167294e-02       1.295995455429e+04 
       4.032804744735e-02       1.289436851708e+04 
       4.054517708169e-02       1.282865389153e+04 
       4.076563573788e-02       1.276280871455e+04 
       4.098958933316e-02       1.269681716712e+04 
       4.121721553407e-02       1.263065665580e+04 
       4.144870486590e-02       1.256440127187e+04 
       4.168426195383e-02       1.249788497197e+04 
       4.192410691463e-02       1.243116480826e+04 
       4.216847692099e-02       1.236422770625e+04 
       4.241762796434e-02       1.229705175127e+04 
       4.267183684634e-02       1.222961910843e+04 
       4.293140343527e-02       1.216190720293e+04 
       4.319665322923e-02       1.209389910965e+04 
       4.346794027694e-02       1.202556919315e+04 
       4.374565051593e-02       1.195688308871e+04 
       4.403020560007e-02       1.188782696766e+04 
       4.432206730264e-02       1.181849585082e+04 
       4.462174259911e-02       1.174859152330e+04 
       4.492978955563e-02       1.167820793393e+04 
       4.524682417633e-02       1.160730215796e+04 
       4.557352839668e-02       1.153583865965e+04 
       4.591065945242e-02       1.146375649555e+04 
       4.625906090651e-02       1.139101538720e+04 
       4.661967568401e-02       1.131754773767e+04 
       4.699356154931e-02       1.124328228001e+04 
       4.738190956772e-02       1.116821749406e+04 
       4.778606623041e-02       1.109213415186e+04 
       4.820756009604e-02       1.101499544940e+04 
       4.864813402480e-02       1.093668750165e+04 
       4.910978436353e-02       1.085709184347e+04 
       4.959480879905e-02       1.077604405252e+04 
       5.010586504653e-02       1.069337638790e+04 
       5.064604309472e-02       1.060900462740e+04 
       5.121895439371e-02       1.052242234598e+04 
       5.182884212266e-02       1.043344603520e+04 
       5.248071743275e-02       1.034170023656e+04 
       5.318052711734e-02       1.024671593800e+04 
       5.393535805367e-02       1.014789972401e+04 
       5.475368202437e-02       1.004456262993e+04 
