# Matter power spectrum P(k) at redshift z=3
# for k=1.05351e-05 to 1.4771 h/Mpc,
# number of wavenumbers equal to 630
#    1:k (h/Mpc)              2:P (Mpc/h)^3        
       1.053514489394e-05       4.671491154648e+00 
       2.276952149661e-05       9.845108485230e+00 
       3.504418898514e-05       1.494009707108e+01 
       4.738893813972e-05       2.000416741420e+01 
       5.983401632858e-05       2.506509351717e+01 
       7.241037091073e-05       3.014388719933e+01 
       8.514989983161e-05       3.525858762424e+01 
       9.808571243705e-05       4.042582940693e+01 
       1.112524035555e-04       4.566164860507e+01 
       1.246863439267e-04       5.098196952595e+01 
       1.384259900706e-04       5.640294049763e+01 
       1.525122166718e-04       6.194119278523e+01 
       1.669886744758e-04       6.761405919650e+01 
       1.819021765092e-04       7.343977195922e+01 
       1.973031151031e-04       7.943765101973e+01 
       2.132459116389e-04       8.562828929910e+01 
       2.297895000668e-04       9.203373861901e+01 
       2.469978439483e-04       9.867769801174e+01 
       2.649404849051e-04       1.055857044489e+02 
       2.836931177317e-04       1.127853243627e+02 
       3.033381838509e-04       1.203063424879e+02 
       3.239654700076e-04       1.281809423680e+02 
       3.456726928723e-04       1.364438702239e+02 
       3.685660423245e-04       1.451325706896e+02 
       3.927606464695e-04       1.542872791333e+02 
       4.183809099171e-04       1.639510509602e+02 
       4.455606638385e-04       1.741697035951e+02 
       4.744430526012e-04       1.849916421685e+02 
       5.051800688206e-04       1.964675359074e+02 
       5.379316388038e-04       2.086498098816e+02 
       5.728641569774e-04       2.215919173870e+02 
       6.101483752873e-04       2.353473637894e+02 
       6.499565766402e-04       2.499684639353e+02 
       6.924590046822e-04       2.655048370722e+02 
       7.378195881228e-04       2.820016671221e+02 
       7.861910849441e-04       2.994977986408e+02 
       8.377098726955e-04       3.180272070840e+02 
       8.924907110840e-04       3.376796169365e+02 
       9.506218815556e-04       3.583257297665e+02 
       1.012161142703e-03       3.800395431596e+02 
       1.077132911743e-03       4.028536363586e+02 
       1.145526984429e-03       4.266185871849e+02 
       1.217298948904e-03       4.513051370822e+02 
       1.292372260017e-03       4.769197042859e+02 
       1.370641756340e-03       5.033318455802e+02 
       1.451978258319e-03       5.305490726502e+02 
       1.477104874446e-03       5.388920653663e+02 
       1.536233807048e-03       5.584634375529e+02 
       1.623247095736e-03       5.869109891099e+02 
       1.712848699802e-03       6.159587894837e+02 
       1.804865805338e-03       6.454077335066e+02 
       1.899126244962e-03       6.752345868133e+02 
       1.995461754027e-03       7.053190133937e+02 
       2.093710445222e-03       7.356012142603e+02 
       2.193718559903e-03       7.660071199598e+02 
       2.295341590445e-03       7.965090178040e+02 
       2.398444883441e-03       8.270392569111e+02 
       2.502903834241e-03       8.575184358801e+02 
       2.608603774488e-03       8.879344039239e+02 
       2.715439640535e-03       9.182325224934e+02 
       2.823315495008e-03       9.483855849548e+02 
       2.932143958664e-03       9.783655494178e+02 
       3.041845596008e-03       1.008107295276e+03 
       3.152348286598e-03       1.037615861889e+03 
       3.263586604583e-03       1.066855623214e+03 
       3.375501221648e-03       1.095827684499e+03 
       3.488038342943e-03       1.124494084888e+03 
       3.601149181428e-03       1.152854156842e+03 
       3.714789473065e-03       1.180889937444e+03 
       3.828919033235e-03       1.208582193830e+03 
       3.943501353323e-03       1.235940193834e+03 
       4.058503235560e-03       1.262944988527e+03 
       4.173894463652e-03       1.289604871284e+03 
       4.289647506486e-03       1.315888712411e+03 
       4.405737252111e-03       1.341812557333e+03 
       4.522140769227e-03       1.367359536922e+03 
       4.638837093523e-03       1.392546929206e+03 
       4.755807036394e-03       1.417365149046e+03 
       4.873033013702e-03       1.442987742632e+03 
       4.990498892495e-03       1.462122625981e+03 
       5.108189853752e-03       1.491172367250e+03 
       5.226092269422e-03       1.503562482739e+03 
       5.344193592215e-03       1.530395453859e+03 
       5.462482256738e-03       1.550581819256e+03 
       5.580947590751e-03       1.575712088217e+03 
       5.699579735426e-03       1.599766539686e+03 
       5.818369573632e-03       1.615518041771e+03 
       5.937308665381e-03       1.638310541270e+03 
       6.056389189646e-03       1.660335871971e+03 
       6.175603891876e-03       1.679333675839e+03 
       6.294946036600e-03       1.700231287163e+03 
       6.414409364576e-03       1.720735011783e+03 
       6.533988054002e-03       1.737405433672e+03 
       6.653676685374e-03       1.756917295041e+03 
       6.773470209610e-03       1.775896920967e+03 
       6.893363919100e-03       1.793581796501e+03 
       7.013353421389e-03       1.811766812882e+03 
       7.133434615225e-03       1.829563755867e+03 
       7.253603668739e-03       1.845567027474e+03 
       7.373856999542e-03       1.862672576436e+03 
       7.494191256556e-03       1.879337112664e+03 
       7.614603303405e-03       1.895186979101e+03 
       7.735090203225e-03       1.911205179366e+03 
       7.855649204746e-03       1.926823261051e+03 
       7.976277729542e-03       1.942106613996e+03 
       8.096973360325e-03       1.956504408093e+03 
       8.217733830198e-03       1.971138129266e+03 
       8.338557012773e-03       1.985459456742e+03 
       8.459440913085e-03       1.999447050979e+03 
       8.580383659214e-03       2.012954274238e+03 
       8.701383494577e-03       2.026340490782e+03 
       8.822438770804e-03       2.039406879492e+03 
       8.943547941174e-03       2.052177124475e+03 
       9.064709554544e-03       2.064412001384e+03 
       9.185922249737e-03       2.076601529582e+03 
       9.307184750353e-03       2.088495458286e+03 
       9.428495859961e-03       2.100106032302e+03 
       9.549854457647e-03       2.111439711440e+03 
       9.671259493888e-03       2.122408094224e+03 
       9.792709986723e-03       2.133183349673e+03 
       9.914205018200e-03       2.143688540014e+03 
       1.003574373108e-02       2.153924060240e+03 
       1.015732532576e-02       2.163797588953e+03 
       1.027894905746e-02       2.173496331995e+03 
       1.040061423352e-02       2.182941733629e+03 
       1.052232021098e-02       2.192130109628e+03 
       1.064406639429e-02       2.201063800961e+03 
       1.076585223313e-02       2.209714727021e+03 
       1.088767722048e-02       2.218148625112e+03 
       1.100954089075e-02       2.226337330035e+03 
       1.113144281805e-02       2.234282226743e+03 
       1.125338261458e-02       2.241988671494e+03 
       1.137535992918e-02       2.249423838291e+03 
       1.149737444589e-02       2.256658666259e+03 
       1.161942588267e-02       2.263661906766e+03 
       1.174151399022e-02       2.270436053888e+03 
       1.186363855084e-02       2.276983786758e+03 
       1.198579937737e-02       2.283307737137e+03 
       1.210799631226e-02       2.289401449875e+03 
       1.223022922662e-02       2.295286007374e+03 
       1.235249801943e-02       2.300955185192e+03 
       1.247480261675e-02       2.306410707941e+03 
       1.259714297099e-02       2.311655005293e+03 
       1.271951906024e-02       2.316691767518e+03 
       1.284193088769e-02       2.321511512771e+03 
       1.296437848102e-02       2.326139088848e+03 
       1.308686189192e-02       2.330565733889e+03 
       1.320938119559e-02       2.334794044964e+03 
       1.333193649027e-02       2.338826328661e+03 
       1.345452789692e-02       2.342664553911e+03 
       1.357715555877e-02       2.346308384673e+03 
       1.369981964106e-02       2.349765915129e+03 
       1.382252033070e-02       2.353036566746e+03 
       1.394525783602e-02       2.356122273271e+03 
       1.406803238653e-02       2.359025057457e+03 
       1.419084423273e-02       2.361747740360e+03 
       1.431369364591e-02       2.364292001233e+03 
       1.443658091802e-02       2.366657621331e+03 
       1.455950636151e-02       2.368852151532e+03 
       1.468247030928e-02       2.370874796001e+03 
       1.477104874446e-02       2.372226132681e+03 
       1.480547311454e-02       2.372727577304e+03 
       1.492851515078e-02       2.374412947060e+03 
       1.505159681177e-02       2.375932564593e+03 
       1.517471851148e-02       2.377288511542e+03 
       1.529788068414e-02       2.378482637046e+03 
       1.542108378424e-02       2.379517711655e+03 
       1.554432828658e-02       2.380395104549e+03 
       1.566761468635e-02       2.381117142707e+03 
       1.579094349920e-02       2.381685427427e+03 
       1.591431526133e-02       2.382102046479e+03 
       1.603773052966e-02       2.382368954989e+03 
       1.616118988190e-02       2.382488505235e+03 
       1.628469391676e-02       2.382461965286e+03 
       1.640824325409e-02       2.382291604372e+03 
       1.653183853508e-02       2.381979310078e+03 
       1.665548042246e-02       2.381526650736e+03 
       1.677916960075e-02       2.380935878575e+03 
       1.690290677645e-02       2.380208791582e+03 
       1.702669267833e-02       2.379347362531e+03 
       1.715052805768e-02       2.378353462797e+03 
       1.727441368864e-02       2.377228567582e+03 
       1.739835036843e-02       2.375974753774e+03 
       1.752233891775e-02       2.374593836168e+03 
       1.764638018106e-02       2.373087653023e+03 
       1.777047502696e-02       2.371457994759e+03 
       1.789462434854e-02       2.369706673353e+03 
       1.801882906381e-02       2.367835604321e+03 
       1.814309011603e-02       2.365846174912e+03 
       1.826740847421e-02       2.363742079986e+03 
       1.839178513349e-02       2.361521915253e+03 
       1.851622111561e-02       2.359189244952e+03 
       1.864071746942e-02       2.356745221652e+03 
       1.876527527130e-02       2.354191958685e+03 
       1.888989562574e-02       2.351530866181e+03 
       1.901457966581e-02       2.348764148209e+03 
       1.913932855377e-02       2.345893020209e+03 
       1.926414348155e-02       2.342919275124e+03 
       1.938902567143e-02       2.339845341098e+03 
       1.951397637659e-02       2.336671557533e+03 
       1.963899688172e-02       2.333400151471e+03 
       1.976408850374e-02       2.330032739957e+03 
       1.988925259239e-02       2.326570926191e+03 
       2.001449053097e-02       2.323016328220e+03 
       2.013980373705e-02       2.319370526607e+03 
       2.026519366318e-02       2.315635252390e+03 
       2.039066179768e-02       2.311811740793e+03 
       2.051620966541e-02       2.307901646017e+03 
       2.064183882858e-02       2.303908190921e+03 
       2.076755088759e-02       2.299829730707e+03 
       2.089334748191e-02       2.295669156358e+03 
       2.101923029093e-02       2.291428243254e+03 
       2.114520103492e-02       2.287108054338e+03 
       2.127126147595e-02       2.282710217372e+03 
       2.139741341888e-02       2.278236150108e+03 
       2.152365871236e-02       2.273687156696e+03 
       2.164999924987e-02       2.269064894732e+03 
       2.177643697082e-02       2.264370568643e+03 
       2.190297386159e-02       2.259606533847e+03 
       2.202961195677e-02       2.254772226698e+03 
       2.215635334022e-02       2.249870128766e+03 
       2.228320014639e-02       2.244901306381e+03 
       2.241015456151e-02       2.239867199070e+03 
       2.253721882490e-02       2.234769029487e+03 
       2.266439523032e-02       2.229608152480e+03 
       2.279168612731e-02       2.224385810066e+03 
       2.291909392266e-02       2.219103378152e+03 
       2.304662108183e-02       2.213761955178e+03 
       2.317427013048e-02       2.208362819752e+03 
       2.330204365607e-02       2.202909088063e+03 
       2.342994430940e-02       2.197398378595e+03 
       2.355797480636e-02       2.191833761418e+03 
       2.368613792957e-02       2.186216286674e+03 
       2.381443653023e-02       2.180547232663e+03 
       2.394287352993e-02       2.174827694717e+03 
       2.407145192251e-02       2.169058951171e+03 
       2.420017477610e-02       2.163242136347e+03 
       2.432904523509e-02       2.157378398489e+03 
       2.445806652225e-02       2.151468850484e+03 
       2.458724194088e-02       2.145515242304e+03 
       2.471657487708e-02       2.139517484438e+03 
       2.484606880205e-02       2.133478407527e+03 
       2.497572727452e-02       2.127396986448e+03 
       2.510555394319e-02       2.121275507518e+03 
       2.523555254932e-02       2.115114675173e+03 
       2.536572692942e-02       2.108915759989e+03 
       2.549608101797e-02       2.102679788137e+03 
       2.562661885029e-02       2.096407808747e+03 
       2.575734456550e-02       2.090100798898e+03 
       2.588826240958e-02       2.083759820315e+03 
       2.601937673856e-02       2.077385774668e+03 
       2.615069202180e-02       2.070979680865e+03 
       2.628221284540e-02       2.064542571070e+03 
       2.641394391577e-02       2.058076987648e+03 
       2.654589006329e-02       2.051580594556e+03 
       2.667805624611e-02       2.045055768350e+03 
       2.681044755414e-02       2.038503667021e+03 
       2.694306921314e-02       2.031924469997e+03 
       2.707592658900e-02       2.025320220141e+03 
       2.720902519218e-02       2.018691062391e+03 
       2.734237068230e-02       2.012037926480e+03 
       2.747596887298e-02       2.005361562710e+03 
       2.760982573676e-02       1.998662819109e+03 
       2.774394741034e-02       1.991942530174e+03 
       2.787834019996e-02       1.985201457144e+03 
       2.801301058699e-02       1.978440328736e+03 
       2.814796523380e-02       1.971660940004e+03 
       2.828321098984e-02       1.964861976003e+03 
       2.841875489800e-02       1.958045178562e+03 
       2.855460420119e-02       1.951211274634e+03 
       2.869076634925e-02       1.944360916360e+03 
       2.882724900613e-02       1.937494874063e+03 
       2.896406005739e-02       1.930613715987e+03 
       2.910120761804e-02       1.923718160511e+03 
       2.923870004066e-02       1.916808828122e+03 
       2.937654592402e-02       1.909886283493e+03 
       2.951475412188e-02       1.902951366039e+03 
       2.965333375243e-02       1.896004485354e+03 
       2.979229420792e-02       1.889046368565e+03 
       2.993164516494e-02       1.882079625734e+03 
       3.007139659503e-02       1.875100726078e+03 
       3.021155877585e-02       1.868112281326e+03 
       3.035214230292e-02       1.861114771523e+03 
       3.049315810182e-02       1.854108778284e+03 
       3.063461744105e-02       1.847094792855e+03 
       3.077653194550e-02       1.840073351856e+03 
       3.091891361061e-02       1.833044838496e+03 
       3.106177481714e-02       1.826009835474e+03 
       3.120512834682e-02       1.818968784117e+03 
       3.134898739867e-02       1.811922036727e+03 
       3.149336560625e-02       1.804870114179e+03 
       3.163827705569e-02       1.797813318199e+03 
       3.178373630479e-02       1.790752018095e+03 
       3.192975840308e-02       1.783687817328e+03 
       3.207635891286e-02       1.776618812420e+03 
       3.222355393154e-02       1.769546476679e+03 
       3.237136011506e-02       1.762471076356e+03 
       3.251979470267e-02       1.755392911630e+03 
       3.266887554308e-02       1.748312203098e+03 
       3.281862112204e-02       1.741229339118e+03 
       3.296905059158e-02       1.734144420311e+03 
       3.312018380083e-02       1.727057848983e+03 
       3.327204132873e-02       1.719969805593e+03 
       3.342464451856e-02       1.712880392043e+03 
       3.357801551466e-02       1.705789935522e+03 
       3.373217730127e-02       1.698698527009e+03 
       3.388715374373e-02       1.691606271987e+03 
       3.404296963230e-02       1.684515608489e+03 
       3.419965072869e-02       1.677422319833e+03 
       3.435722381548e-02       1.670328685292e+03 
       3.451571674879e-02       1.663234607061e+03 
       3.467515851428e-02       1.656140311809e+03 
       3.483557928694e-02       1.649045768223e+03 
       3.499701049476e-02       1.641951072656e+03 
       3.515948488672e-02       1.634856202281e+03 
       3.532303660543e-02       1.627761071914e+03 
       3.548770126483e-02       1.620665770539e+03 
       3.565351603329e-02       1.613570131387e+03 
       3.582051972263e-02       1.606474114336e+03 
       3.598875288360e-02       1.599377715842e+03 
       3.615825790826e-02       1.592280663921e+03 
       3.632907914005e-02       1.585183949190e+03 
       3.650126299204e-02       1.578085186133e+03 
       3.667485807428e-02       1.570985316214e+03 
       3.684991533100e-02       1.563884014921e+03 
       3.702648818854e-02       1.556780989067e+03 
       3.720463271513e-02       1.549676059082e+03 
       3.738440779364e-02       1.542568754568e+03 
       3.756587530847e-02       1.535458848491e+03 
       3.774910034815e-02       1.528345722706e+03 
       3.793415142507e-02       1.521229204261e+03 
       3.812110071425e-02       1.514108710643e+03 
       3.831002431300e-02       1.506983683476e+03 
       3.850100252383e-02       1.499853726242e+03 
       3.869412016291e-02       1.492720249215e+03 
       3.888946689719e-02       1.485578503296e+03 
       3.908713761302e-02       1.478429842669e+03 
       3.928723282012e-02       1.471273624371e+03 
       3.948985909491e-02       1.464108954188e+03 
       3.969512956775e-02       1.456935205780e+03 
       3.990316445943e-02       1.449751273201e+03 
       4.011409167294e-02       1.442556373620e+03 
       4.032804744735e-02       1.435349449799e+03 
       4.054517708169e-02       1.428129331430e+03 
       4.076563573788e-02       1.420895057518e+03 
       4.098958933316e-02       1.413645302888e+03 
       4.121721553407e-02       1.406378612504e+03 
       4.144870486590e-02       1.399094832530e+03 
       4.168426195383e-02       1.391790205391e+03 
       4.192410691463e-02       1.384464124471e+03 
       4.216847692099e-02       1.377114876562e+03 
       4.241762796434e-02       1.369740519805e+03 
       4.267183684634e-02       1.362339014048e+03 
       4.293140343527e-02       1.354908146595e+03 
       4.319665322923e-02       1.347445649755e+03 
       4.346794027694e-02       1.339948930721e+03 
       4.374565051593e-02       1.332415184156e+03 
       4.403020560007e-02       1.324841565235e+03 
       4.432206730264e-02       1.317226916269e+03 
       4.462174259911e-02       1.309563488677e+03 
       4.492978955563e-02       1.301849487084e+03 
       4.524682417633e-02       1.294080631951e+03 
       4.557352839668e-02       1.286252345122e+03 
       4.591065945242e-02       1.278359301905e+03 
       4.625906090651e-02       1.270395944541e+03 
       4.661967568401e-02       1.262355805690e+03 
       4.699356154931e-02       1.254231623993e+03 
       4.738190956772e-02       1.246016582427e+03 
       4.778606623041e-02       1.237699450220e+03 
       4.820756009604e-02       1.229270865076e+03 
       4.864813402480e-02       1.220718981243e+03 
       4.910978436353e-02       1.212030332888e+03 
       4.959480879905e-02       1.203188801260e+03 
       5.010586504653e-02       1.194175761651e+03 
       5.064604309472e-02       1.184971032135e+03 
       5.121895439371e-02       1.175543417981e+03 
       5.182884212266e-02       1.165862301504e+03 
       5.248071743275e-02       1.155887475732e+03 
       5.318052711734e-02       1.145568864896e+03 
       5.393535805367e-02       1.134843082460e+03 
       5.475368202437e-02       1.123629932278e+03 
