# Matter power spectrum P(k) at redshift z=0
# for k=1.04398e-05 to 1.75868 h/Mpc,
# number of wavenumbers equal to 569
#    1:k (h/Mpc)              2:P (Mpc/h)^3        
       1.043979894785e-05       4.789897414879e+01 
       2.330602609341e-05       1.041580001054e+02 
       3.621740148607e-05       1.595412417238e+02 
       4.920858474001e-05       2.146008141578e+02 
       6.231480748496e-05       2.696574979062e+02 
       7.557218680167e-05       3.249556752273e+02 
       8.901804865837e-05       3.807069182782e+02 
       1.026912656408e-04       4.371079189399e+02 
       1.166326133018e-04       4.943497610280e+02 
       1.308851494884e-04       5.526235895401e+02 
       1.454946210142e-04       6.121246011051e+02 
       1.605099019816e-04       6.730551965241e+02 
       1.759834678888e-04       7.356276993885e+02 
       1.919719092859e-04       8.000668752416e+02 
       2.085364881021e-04       8.666123547952e+02 
       2.257437386969e-04       9.355210589673e+02 
       2.436661140518e-04       1.007069628911e+03 
       2.623826750731e-04       1.081556895751e+03 
       2.819798174773e-04       1.159306359443e+03 
       3.025520258302e-04       1.240668626858e+03 
       3.242026376526e-04       1.326023759378e+03 
       3.470445916776e-04       1.415783386753e+03 
       3.712011229821e-04       1.510392443836e+03 
       3.968063535495e-04       1.610330309828e+03 
       4.240057098871e-04       1.716111083148e+03 
       4.529560801047e-04       1.828282621600e+03 
       4.838256027082e-04       1.947423974347e+03 
       5.167929607446e-04       2.074140682438e+03 
       5.520460418928e-04       2.209057523249e+03 
       5.897798233822e-04       2.352808191010e+03 
       6.301933575265e-04       2.506021558807e+03 
       6.734857770453e-04       2.669304386180e+03 
       7.198513156601e-04       2.843220633797e+03 
       7.694734506426e-04       3.028268034354e+03 
       8.225184137425e-04       3.224853071836e+03 
       8.791284676303e-04       3.433266095427e+03 
       9.394154774431e-04       3.653658776528e+03 
       1.003455384865e-03       3.886026150892e+03 
       1.071284181839e-03       4.130195676020e+03 
       1.142895864695e-03       4.385824693449e+03 
       1.218242635993e-03       4.652407822985e+03 
       1.297237348476e-03       4.929291959803e+03 
       1.379757910716e-03       5.215700369637e+03 
       1.465653156225e-03       5.510760481444e+03 
       1.554749558197e-03       5.813534455605e+03 
       1.646858162654e-03       6.123048933798e+03 
       1.741781196726e-03       6.438322448510e+03 
       1.839317951195e-03       6.758388527477e+03 
       1.939269697874e-03       7.082314678521e+03 
       2.041443550960e-03       7.409202609954e+03 
       2.145655297769e-03       7.738232467468e+03 
       2.251731301738e-03       8.068646192101e+03 
       2.359509621879e-03       8.399745777553e+03 
       2.468840505869e-03       8.730898851492e+03 
       2.579586407504e-03       9.061537127213e+03 
       2.691621661797e-03       9.391152311096e+03 
       2.804831928614e-03       9.719292866412e+03 
       2.919113492845e-03       1.004555920121e+04 
       3.034372488012e-03       1.036960001441e+04 
       3.150524092217e-03       1.069110649578e+04 
       3.267491730686e-03       1.100980922841e+04 
       3.385206307752e-03       1.132547419763e+04 
       3.503605482488e-03       1.163789695733e+04 
       3.622632995912e-03       1.194690139210e+04 
       3.742238053198e-03       1.225233793850e+04 
       3.862374761291e-03       1.255407612710e+04 
       3.983001620286e-03       1.285200856310e+04 
       4.104081065710e-03       1.314604049185e+04 
       4.225579058124e-03       1.343610104139e+04 
       4.347464716167e-03       1.372212314743e+04 
       4.469709989063e-03       1.400405822483e+04 
       4.592289364752e-03       1.428186799488e+04 
       4.715179609961e-03       1.455551704373e+04 
       4.838359538825e-03       1.482494856096e+04 
       4.961809806942e-03       1.509023327039e+04 
       5.085512728006e-03       1.535129676806e+04 
       5.209452110506e-03       1.560815663162e+04 
       5.333613112179e-03       1.586086934983e+04 
       5.457982110208e-03       1.610941136707e+04 
       5.582546585354e-03       1.635375507578e+04 
       5.707295018425e-03       1.659319055083e+04 
       5.832216797685e-03       1.682923494661e+04 
       5.957302135933e-03       1.706113039356e+04 
       6.082541996187e-03       1.728886982595e+04 
       6.207928024974e-03       1.751264542411e+04 
       6.333452492393e-03       1.773227779101e+04 
       6.459108238194e-03       1.794815739795e+04 
       6.584888623203e-03       1.816014052858e+04 
       6.710787485521e-03       1.836781147954e+04 
       6.836799100966e-03       1.857137028604e+04 
       6.962918147317e-03       1.877137342354e+04 
       7.089139671938e-03       1.896749355707e+04 
       7.215459062446e-03       1.915976162695e+04 
       7.341872020094e-03       1.934813120859e+04 
       7.468374535584e-03       1.953264055897e+04 
       7.594962867085e-03       1.971368150287e+04 
       7.721633520197e-03       1.989088435716e+04 
       7.848383229710e-03       2.006517942946e+04 
       7.975208942937e-03       2.023521124166e+04 
       8.102107804506e-03       2.040168905416e+04 
       8.229077142440e-03       2.056462429957e+04 
       8.356114455421e-03       2.072408899794e+04 
       8.483217401115e-03       2.088010023806e+04 
       8.610383785466e-03       2.103267410457e+04 
       8.737611552866e-03       2.118186245430e+04 
       8.864898777119e-03       2.132772324639e+04 
       8.992243653134e-03       2.147019592299e+04 
       9.119644489270e-03       2.160941381789e+04 
       9.247099700293e-03       2.174541627859e+04 
       9.374607800869e-03       2.187822133651e+04 
       9.502167399572e-03       2.200784436349e+04 
       9.629777193335e-03       2.213434217643e+04 
       9.757435962337e-03       2.225773154493e+04 
       9.885142565261e-03       2.237804718230e+04 
       1.001289593491e-02       2.249532312853e+04 
       1.014069507415e-02       2.260962299085e+04 
       1.026853905215e-02       2.272093009209e+04 
       1.039642700089e-02       2.282932673895e+04 
       1.052435811191e-02       2.293482065115e+04 
       1.065233163334e-02       2.303751419444e+04 
       1.078034686708e-02       2.313721846002e+04 
       1.090840316622e-02       2.323427744237e+04 
       1.103649993266e-02       2.332840974367e+04 
       1.116463661480e-02       2.341990201558e+04 
       1.129281270554e-02       2.350867021892e+04 
       1.142102774031e-02       2.359476967855e+04 
       1.154928129525e-02       2.367820359410e+04 
       1.167757298557e-02       2.375902204558e+04 
       1.180590246398e-02       2.383729309139e+04 
       1.193426941923e-02       2.391300800726e+04 
       1.206267357477e-02       2.398616644052e+04 
       1.219111468753e-02       2.405680249442e+04 
       1.231959254668e-02       2.412503288138e+04 
       1.244810697264e-02       2.419074428824e+04 
       1.257665781597e-02       2.425425034382e+04 
       1.270524495655e-02       2.431522936102e+04 
       1.283386830263e-02       2.437386730814e+04 
       1.296252779006e-02       2.443000804542e+04 
       1.309122338155e-02       2.448417579166e+04 
       1.321995506597e-02       2.453580676582e+04 
       1.334872285774e-02       2.458533885527e+04 
       1.347752679620e-02       2.463273499471e+04 
       1.360636694516e-02       2.467775475609e+04 
       1.373524339229e-02       2.472080367142e+04 
       1.386415624879e-02       2.476149553727e+04 
       1.399310564888e-02       2.480017716918e+04 
       1.412209174949e-02       2.483683014966e+04 
       1.425111472990e-02       2.487139880618e+04 
       1.438017479144e-02       2.490388956554e+04 
       1.450927215722e-02       2.493442025288e+04 
       1.463840707190e-02       2.496296931212e+04 
       1.476757980145e-02       2.498877415154e+04 
       1.489679063302e-02       2.501420003270e+04 
       1.502603987472e-02       2.503698044649e+04 
       1.515532785556e-02       2.505696830060e+04 
       1.528465492530e-02       2.507605331214e+04 
       1.541402145438e-02       2.509407711755e+04 
       1.554342783388e-02       2.510936270633e+04 
       1.567287447548e-02       2.512295773283e+04 
       1.580236181143e-02       2.513476146997e+04 
       1.593189029458e-02       2.514484963901e+04 
       1.606146039841e-02       2.515320238309e+04 
       1.619107261706e-02       2.515990518591e+04 
       1.632072746542e-02       2.516478731470e+04 
       1.645042547923e-02       2.516817566090e+04 
       1.658016721514e-02       2.516908218978e+04 
       1.670995325087e-02       2.517001145322e+04 
       1.683978418536e-02       2.516846238843e+04 
       1.696966063890e-02       2.516463402205e+04 
       1.709958325334e-02       2.516003674683e+04 
       1.722955269226e-02       2.515474586260e+04 
       1.735956964119e-02       2.514717559447e+04 
       1.748963480787e-02       2.513808613209e+04 
       1.761974892243e-02       2.512656240776e+04 
       1.774991273770e-02       2.511496005613e+04 
       1.788012702951e-02       2.510225270026e+04 
       1.801039259691e-02       2.508677521334e+04 
       1.814071026257e-02       2.507135412284e+04 
       1.827108087303e-02       2.505312602748e+04 
       1.840150529911e-02       2.503505777383e+04 
       1.853198443623e-02       2.501420806332e+04 
       1.866251920481e-02       2.499350558467e+04 
       1.879311055067e-02       2.497003387805e+04 
       1.892375944541e-02       2.494672545292e+04 
       1.905446688689e-02       2.492176496605e+04 
       1.918523389965e-02       2.489419898941e+04 
       1.931606153537e-02       2.486667003453e+04 
       1.944695087336e-02       2.483887120174e+04 
       1.957790302109e-02       2.480839855681e+04 
       1.970891911466e-02       2.477804534077e+04 
       1.984000031939e-02       2.474582028298e+04 
       1.997114783035e-02       2.471239973981e+04 
       2.010236287293e-02       2.467719125727e+04 
       2.023364670347e-02       2.464272220987e+04 
       2.036500060987e-02       2.460527152367e+04 
       2.049642591220e-02       2.456772774160e+04 
       2.062792396341e-02       2.452942525370e+04 
       2.075949614996e-02       2.449067759034e+04 
       2.089114389259e-02       2.444928077156e+04 
       2.102286864697e-02       2.440782109785e+04 
       2.115467190454e-02       2.436542981288e+04 
       2.128655519319e-02       2.432300493640e+04 
       2.141852007815e-02       2.427864963629e+04 
       2.155056816275e-02       2.423264609798e+04 
       2.168270108933e-02       2.418693747539e+04 
       2.181492054005e-02       2.414023424401e+04 
       2.194722823787e-02       2.409291057699e+04 
       2.207962594743e-02       2.404370845428e+04 
       2.221211547604e-02       2.399439447247e+04 
       2.234469867467e-02       2.394432673706e+04 
       2.247737743897e-02       2.389334113687e+04 
       2.261015371035e-02       2.384186135735e+04 
       2.274302947703e-02       2.378980849589e+04 
       2.287600677521e-02       2.373594627320e+04 
       2.300908769019e-02       2.368274485597e+04 
       2.314227435761e-02       2.362780407903e+04 
       2.327556896464e-02       2.357231754638e+04 
       2.340897375130e-02       2.351646972245e+04 
       2.354249101171e-02       2.346030065669e+04 
       2.367612309551e-02       2.340293009985e+04 
       2.380987240923e-02       2.334450001847e+04 
       2.394374141773e-02       2.328611231832e+04 
       2.407773264568e-02       2.322704449612e+04 
       2.421184867912e-02       2.316718184717e+04 
       2.434609216705e-02       2.310743989755e+04 
       2.448046582301e-02       2.304591599642e+04 
       2.461497242686e-02       2.298501639145e+04 
       2.474961482645e-02       2.292271668135e+04 
       2.488439593945e-02       2.286009425170e+04 
       2.501931875523e-02       2.279774078766e+04 
       2.515438633674e-02       2.273416001011e+04 
       2.528960182255e-02       2.266972127838e+04 
       2.542496842886e-02       2.260531995106e+04 
       2.556048945166e-02       2.254098862693e+04 
       2.569616826887e-02       2.247514540100e+04 
       2.583200834269e-02       2.240926914006e+04 
       2.596801322186e-02       2.234350669490e+04 
       2.610418654416e-02       2.227693915530e+04 
       2.624053203887e-02       2.220948302427e+04 
       2.637705352939e-02       2.214256061965e+04 
       2.651375493595e-02       2.207464839724e+04 
       2.665064027835e-02       2.200613988769e+04 
       2.678771367887e-02       2.193764355357e+04 
       2.692497936525e-02       2.186875367052e+04 
       2.706244167381e-02       2.180005548164e+04 
       2.720010505259e-02       2.173052865176e+04 
       2.733797406475e-02       2.166049314225e+04 
       2.747605339194e-02       2.159031009705e+04 
       2.761434783795e-02       2.151966272628e+04 
       2.775286233232e-02       2.144923587361e+04 
       2.789160193428e-02       2.137796999453e+04 
       2.803057183666e-02       2.130670397835e+04 
       2.816977737006e-02       2.123522085821e+04 
       2.830922400715e-02       2.116348518274e+04 
       2.844891736714e-02       2.109186039047e+04 
       2.858886322037e-02       2.101930887650e+04 
       2.872906749321e-02       2.094681644650e+04 
       2.886953627298e-02       2.087417279977e+04 
       2.901027581320e-02       2.080139668078e+04 
       2.915129253903e-02       2.072865757112e+04 
       2.929259305285e-02       2.065518308674e+04 
       2.943418414016e-02       2.058195864385e+04 
       2.957607277567e-02       2.050849306131e+04 
       2.971826612969e-02       2.043468989298e+04 
       2.986077157469e-02       2.036060890214e+04 
       3.000359669226e-02       2.028686837127e+04 
       3.014674928028e-02       2.021243192975e+04 
       3.029023736044e-02       2.013819284212e+04 
       3.043406918604e-02       2.006405155187e+04 
       3.057825325018e-02       1.998928412069e+04 
       3.072279829427e-02       1.991473008915e+04 
       3.086771331696e-02       1.984010269688e+04 
       3.101300758343e-02       1.976528419509e+04 
       3.115869063510e-02       1.969022491029e+04 
       3.130477229983e-02       1.961519976522e+04 
       3.145126270252e-02       1.954017268420e+04 
       3.159817227625e-02       1.946499299618e+04 
       3.174551177393e-02       1.938971690234e+04 
       3.189329228052e-02       1.931450210618e+04 
       3.204152522575e-02       1.923940467475e+04 
       3.219022239760e-02       1.916372410044e+04 
       3.233939595626e-02       1.908842961776e+04 
       3.248905844895e-02       1.901291051526e+04 
       3.263922282532e-02       1.893753188745e+04 
       3.278990245375e-02       1.886212568686e+04 
       3.294111113838e-02       1.878640600894e+04 
       3.309286313705e-02       1.871082660047e+04 
       3.324517318018e-02       1.863529286201e+04 
       3.339805649063e-02       1.855963908426e+04 
       3.355152880454e-02       1.848421815203e+04 
       3.370560639339e-02       1.840839682462e+04 
       3.386030608718e-02       1.833282202281e+04 
       3.401564529888e-02       1.825724676101e+04 
       3.417164205019e-02       1.818159653149e+04 
       3.432831499887e-02       1.810603084024e+04 
       3.448568346737e-02       1.803040399277e+04 
       3.464376747336e-02       1.795485112255e+04 
       3.480258776179e-02       1.787925567017e+04 
       3.496216583891e-02       1.780386299063e+04 
       3.512252400834e-02       1.772836639583e+04 
       3.528368540916e-02       1.765275928196e+04 
       3.544567405641e-02       1.757730465301e+04 
       3.560851488397e-02       1.750199151806e+04 
       3.577223379015e-02       1.742644841200e+04 
       3.593685768609e-02       1.735109574280e+04 
       3.610241454720e-02       1.727571595901e+04 
       3.626893346792e-02       1.720053763481e+04 
       3.643644472003e-02       1.712520244428e+04 
       3.660497981475e-02       1.704986060771e+04 
       3.677457156895e-02       1.697483954845e+04 
       3.694525417593e-02       1.689944992377e+04 
       3.711706328084e-02       1.682430883887e+04 
       3.729003606144e-02       1.674944067784e+04 
       3.746421131451e-02       1.667415653301e+04 
       3.763962954831e-02       1.659906780140e+04 
       3.781633308175e-02       1.652422462651e+04 
       3.799436615079e-02       1.644897727565e+04 
       3.817377502270e-02       1.637405975587e+04 
       3.835460811884e-02       1.629908228860e+04 
       3.853691614693e-02       1.622412520199e+04 
       3.872075224335e-02       1.614924045319e+04 
       3.890617212673e-02       1.607427555908e+04 
       3.909323426375e-02       1.599942987064e+04 
       3.928200004824e-02       1.592450842028e+04 
       3.947253399512e-02       1.584964710214e+04 
       3.966490395039e-02       1.577475450094e+04 
       3.985918131896e-02       1.569990166212e+04 
       4.005544131210e-02       1.562526703669e+04 
       4.025376321654e-02       1.555021477563e+04 
       4.045423068747e-02       1.547529626098e+04 
       4.065693206810e-02       1.540034166162e+04 
       4.086196073862e-02       1.532536620702e+04 
       4.106941549788e-02       1.525058061617e+04 
       4.127940098139e-02       1.517529675864e+04 
       4.149202811996e-02       1.510038749530e+04 
       4.170741464369e-02       1.502532702598e+04 
       4.192568563665e-02       1.494981473392e+04 
       4.214697414855e-02       1.487456846374e+04 
       4.237142187045e-02       1.479916790139e+04 
       4.259917988243e-02       1.472392249076e+04 
       4.283040948275e-02       1.464807487565e+04 
       4.306528310907e-02       1.457251977445e+04 
       4.330398536402e-02       1.449653207545e+04 
       4.354671415964e-02       1.442055198028e+04 
       4.379368199698e-02       1.434437043966e+04 
       4.404511740049e-02       1.426823340273e+04 
       4.430126652950e-02       1.419164790976e+04 
       4.456239499340e-02       1.411462468692e+04 
       4.482878990149e-02       1.403766045200e+04 
       4.510076218405e-02       1.396029424390e+04 
       4.537864922802e-02       1.388269863330e+04 
       4.566281787861e-02       1.380506589587e+04 
       4.595366786805e-02       1.372693259955e+04 
       4.625163574473e-02       1.364817269297e+04 
       4.655719939048e-02       1.356899562741e+04 
       4.687088323207e-02       1.348960184023e+04 
       4.719326427479e-02       1.340977768679e+04 
       4.752497911402e-02       1.332919930212e+04 
       4.786673211463e-02       1.324864763483e+04 
       4.821930499100e-02       1.316687074650e+04 
       4.858356807426e-02       1.308441534592e+04 
       4.896049362090e-02       1.300113744553e+04 
       4.935117160253e-02       1.291754921392e+04 
       4.975682852511e-02       1.283266887309e+04 
       5.017884996380e-02       1.274652209561e+04 
       5.061880767557e-02       1.265970783274e+04 
       5.107849237579e-02       1.257190217767e+04 
       5.155995355029e-02       1.248192795630e+04 
       5.206554803630e-02       1.239090793952e+04 
       5.259799956096e-02       1.229870821899e+04 
       5.316047198905e-02       1.220377988742e+04 
       5.375665971102e-02       1.210670061570e+04 
       5.439089938003e-02       1.200733021845e+04 
       5.506830801391e-02       1.190443024735e+04 
       5.579495312527e-02       1.179856813832e+04 
       5.657806060650e-02       1.168815850311e+04 
       5.742626467870e-02       1.157240894162e+04 
       5.834989954071e-02       1.145124433819e+04 
       5.936132108046e-02       1.132133906192e+04 
       6.047522325585e-02       1.118306825364e+04 
       6.170886826667e-02       1.103196410879e+04 
