# dimensionless total lensed [l(l+1)/2pi] C_l's
# for l=2 to 2600, i.e. number of multipoles equal to 2599
#
# -> if you prefer output in CAMB/HealPix/LensPix units/order, set 'format' to 'camb' in input file
# -> if you don't want to see such a header, set 'headers' to 'no' in input file
# -> for CMB lensing (phi), these are C_l^phi-phi for the lensing potential.
#    Remember the conversion factors:
#    C_l^dd (deflection) = l(l+1) C_l^phi-phi
#    C_l^gg (shear/convergence) = 1/4 (l(l+1))^2 C_l^phi-phi
#
# 1:l     2:TT                     3:EE                     4:TE                     5:BB                     6:phiphi                 7:TPhi                   8:Ephi               
    2       1.448382886714e-10       4.780381852403e-15       3.846254492771e-13       2.533710326173e-19       8.628485348347e-09       4.761594655420e-10      -2.016489840706e-12 
    3       1.369703573349e-10       6.588060349950e-15       4.464525180364e-13       5.067983121247e-19       5.332093112916e-09       3.382290255968e-10      -1.588683909702e-12 
    4       1.294565280915e-10       6.195643730785e-15       4.310943586398e-13       8.447898624462e-19       3.709658576628e-09       2.564654674553e-10      -1.099705813225e-12 
    5       1.237471118283e-10       4.567073702202e-15       3.800602501349e-13       1.267423407169e-18       2.768934278774e-09       2.027968637508e-10      -6.696104791972e-13 
    6       1.197552357746e-10       2.850599289906e-15       3.179585045109e-13       1.774798203383e-18       2.163637247965e-09       1.651410660449e-10      -3.350252480084e-13 
    7       1.171035747929e-10       1.669463300337e-15       2.596232059856e-13       2.367036116898e-18       1.746373499205e-09       1.374845727714e-10      -1.041888386365e-13 
    8       1.154865335652e-10       1.066785441433e-15       2.122300206331e-13       3.044282609873e-18       1.444039786050e-09       1.164911016757e-10       3.130362529445e-14 
    9       1.146445500149e-10       8.086640651760e-16       1.782586001432e-13       3.806707504751e-18       1.216708371409e-09       1.001565241167e-10       8.948126183753e-14 
   10       1.143594173423e-10       6.733029601544e-16       1.573130246041e-13       4.654505387851e-18       1.040571792432e-09       8.718193324615e-11       9.297900616946e-14 
   11       1.145380750430e-10       5.661681104236e-16       1.472884679376e-13       5.587895523498e-18       8.769687588540e-10       7.698067195576e-11       6.478401177530e-14 
   12       1.150554928197e-10       4.882272669692e-16       1.453146876653e-13       6.607121165139e-18       7.664979426064e-10       6.811880629129e-11       2.460465757129e-14 
   13       1.158378330756e-10       4.609244322936e-16       1.485511106491e-13       7.712448172774e-18       6.757872095001e-10       6.089736166465e-11      -1.272912234430e-14 
   14       1.168106950995e-10       4.842150047948e-16       1.546488455768e-13       8.904162875432e-18       6.002947136763e-10       5.459225582745e-11      -3.943622980804e-14 
   15       1.179803462471e-10       5.397395232628e-16       1.619470038545e-13       1.018256915194e-17       5.367339089347e-10       4.929804487108e-11      -5.201063029703e-14 
   16       1.192946767955e-10       6.112009835361e-16       1.694530853626e-13       1.154798474133e-17       4.826796168969e-10       4.476104467981e-11      -5.190149780478e-14 
   17       1.207293647262e-10       6.953229820522e-16       1.766867115188e-13       1.300073683417e-17       4.362995384112e-10       4.081226765065e-11      -4.310589344120e-14 
   18       1.222495796170e-10       7.984019420230e-16       1.836930828284e-13       1.454115746381e-17       3.960350842781e-10       3.732498783720e-11      -3.072236013759e-14 
   19       1.238667536872e-10       9.240714895343e-16       1.907542788934e-13       1.616957583111e-17       3.612507088703e-10       3.426921548820e-11      -1.850281211521e-14 
   20       1.255534674056e-10       1.073612668609e-15       1.981780442160e-13       1.788631698244e-17       3.306079185295e-10       3.157210305690e-11      -9.942960921720e-15 
   21       1.273186789658e-10       1.245016071761e-15       2.060880118662e-13       1.969169015278e-17       3.036272834776e-10       2.918813932102e-11      -6.004795087062e-15 
   22       1.291496594873e-10       1.434944301382e-15       2.144758448698e-13       2.158598795491e-17       2.796652672784e-10       2.704254415440e-11      -6.418893131408e-15 
   23       1.310421272836e-10       1.643710274907e-15       2.231527073746e-13       2.356947613828e-17       2.583937536696e-10       2.511093980183e-11      -9.924466418254e-15 
   24       1.329751353585e-10       1.872563322559e-15       2.317974284537e-13       2.564239268251e-17       2.393222907718e-10       2.336435703545e-11      -1.462420673039e-14 
   25       1.349622622810e-10       2.121422546850e-15       2.400676501691e-13       2.780494008248e-17       2.222274802500e-10       2.179975294634e-11      -1.895790024541e-14 
   26       1.370087147257e-10       2.389849333621e-15       2.475797087153e-13       3.005728385373e-17       2.068008141602e-10       2.040306576358e-11      -2.148004644479e-14 
   27       1.390994699069e-10       2.678637687050e-15       2.540645796398e-13       3.239954830341e-17       1.928578410798e-10       1.914184018155e-11      -2.184400613108e-14 
   28       1.412054742446e-10       2.989157208822e-15       2.593128606375e-13       3.483181591350e-17       1.801587649099e-10       1.797159765257e-11      -2.019464989703e-14 
   29       1.433369896655e-10       3.323342796110e-15       2.633333794315e-13       3.735413380598e-17       1.686391415953e-10       1.689090868393e-11      -1.716985777056e-14 
   30       1.455061706376e-10       3.683554794502e-15       2.662355983155e-13       3.996650379958e-17       1.581757028109e-10       1.590396801634e-11      -1.376098040566e-14 
   31       1.477142480477e-10       4.072141604730e-15       2.681509865729e-13       4.266888512611e-17       1.485555304517e-10       1.500604410718e-11      -1.102966939930e-14 
   32       1.499633648008e-10       4.490073881312e-15       2.691237305641e-13       4.546122257817e-17       1.397292161990e-10       1.418836825499e-11      -9.288427424016e-15 
   33       1.522463453179e-10       4.937785964371e-15       2.691810718037e-13       4.834342405724e-17       1.316345796757e-10       1.343321316084e-11      -8.617905867726e-15 
   34       1.545494053463e-10       5.415640271756e-15       2.683348591024e-13       5.131536345354e-17       1.241586266992e-10       1.271919529277e-11      -8.999230705291e-15 
   35       1.568776978902e-10       5.924373845627e-15       2.664875143763e-13       5.437692516486e-17       1.172632784911e-10       1.204777506327e-11      -1.004855622769e-14 
   36       1.592369757151e-10       6.464795740087e-15       2.634904652804e-13       5.752797230699e-17       1.108934047283e-10       1.142520386489e-11      -1.117529490026e-14 
   37       1.616279194929e-10       7.037675639522e-15       2.591884839484e-13       6.076835407085e-17       1.049663217064e-10       1.085465382858e-11      -1.179110504928e-14 
   38       1.640526050983e-10       7.643778920755e-15       2.534946066902e-13       6.409797583820e-17       9.946683520808e-11       1.033416228784e-11      -1.182258651581e-14 
   39       1.665089490605e-10       8.283837368196e-15       2.463382049709e-13       6.751675186739e-17       9.437760291161e-11       9.857457454515e-12      -1.136457315934e-14 
   40       1.689881268668e-10       8.958535801188e-15       2.376444244804e-13       7.102458701816e-17       8.965022020472e-11       9.414071607162e-12      -1.054594493939e-14 
   41       1.714792441005e-10       9.668495188589e-15       2.273530386521e-13       7.462139862789e-17       8.522210934648e-11       8.992551252811e-12      -9.521487011303e-15 
   42       1.739867755863e-10       1.041422291649e-14       2.154833125763e-13       7.830718973924e-17       8.108031481912e-11       8.592164608087e-12      -8.438477456013e-15 
   43       1.765176851724e-10       1.119614105525e-14       2.020896089924e-13       8.208200038715e-17       7.721391357381e-11       8.214431043567e-12      -7.463285294538e-15 
   44       1.790762882100e-10       1.201459470773e-14       1.872448956285e-13       8.594589002597e-17       7.359486984632e-11       7.859803421507e-12      -6.792643592393e-15 
   45       1.816646518094e-10       1.286990030323e-14       1.710147362298e-13       8.989894442406e-17       7.018806627322e-11       7.527842997172e-12      -6.596118004557e-15 
   46       1.842846406608e-10       1.376251731069e-14       1.533677884040e-13       9.394129434770e-17       6.698818467780e-11       7.218035043645e-12      -6.819064031204e-15 
   47       1.869359758349e-10       1.469292092094e-14       1.342401383139e-13       9.807310568088e-17       6.399153312403e-11       6.929052075650e-12      -7.323604447954e-15 
   48       1.896153384298e-10       1.566155309357e-14       1.135593205851e-13       1.022945770307e-16       6.118492107902e-11       6.658423898619e-12      -7.941024506538e-15 
   49       1.923161117347e-10       1.666882149331e-14       9.124370139879e-14       1.066059419071e-16       5.854495286401e-11       6.402456273185e-12      -8.470033550714e-15 
   50       1.950313079362e-10       1.771505120785e-14       6.721629915014e-14       1.110074491998e-16       5.604508133921e-11       6.157283855380e-12      -8.730152517318e-15 
   51       1.977638829591e-10       1.880032691850e-14       4.145210025617e-14       1.154992933035e-16       5.368066533109e-11       5.922554656453e-12      -8.742993490794e-15 
   52       2.005187757874e-10       1.992460604999e-14       1.394252032817e-14       1.200816687942e-16       5.144949244721e-11       5.698605094612e-12      -8.597181531097e-15 
   53       2.032998632180e-10       2.108775903703e-14      -1.531784985023e-14       1.247547916053e-16       4.934428004026e-11       5.485385834678e-12      -8.398364926631e-15 
   54       2.061098518858e-10       2.228956603860e-14      -4.633118181482e-14       1.295189001862e-16       4.735233384655e-11       5.282433830259e-12      -8.270070969465e-15 
   55       2.089504870402e-10       2.352978920653e-14      -7.910043878936e-14       1.343742119902e-16       4.545942548200e-11       5.089107257698e-12      -8.322971607319e-15 
   56       2.118234869708e-10       2.480841804187e-14      -1.136427791720e-13       1.393207776251e-16       4.366333495723e-11       4.905422711168e-12      -8.551778995038e-15 
   57       2.147296515864e-10       2.612547923518e-14      -1.499793732744e-13       1.443585924996e-16       4.196307449248e-11       4.731377014489e-12      -8.914235542154e-15 
   58       2.176684724486e-10       2.748096611801e-14      -1.881316979806e-13       1.494876377505e-16       4.035479127704e-11       4.566685221342e-12      -9.360093103017e-15 
   59       2.206380371380e-10       2.887483832088e-14      -2.281216336623e-13       1.547078796610e-16       3.883159047888e-11       4.410762899985e-12      -9.830737967988e-15 
   60       2.236349336197e-10       3.030702143129e-14      -2.699715610947e-13       1.600192690787e-16       3.738335825415e-11       4.262708417961e-12      -1.025881585464e-14 
   61       2.266556931242e-10       3.177731950452e-14      -3.136966188868e-13       1.654217180612e-16       3.599957262996e-11       4.121556216666e-12      -1.058313989583e-14 
   62       2.297017136026e-10       3.328513042186e-14      -3.592792256847e-13       1.709150250029e-16       3.467887383803e-11       3.987143144932e-12      -1.079817327639e-14 
   63       2.327752767183e-10       3.482966574380e-14      -4.066889851557e-13       1.764989315929e-16       3.342133784872e-11       3.859406032194e-12      -1.091503859295e-14 
   64       2.358780609604e-10       3.641002917387e-14      -4.558898720204e-13       1.821731428263e-16       3.222559749632e-11       3.738118921569e-12      -1.094732268397e-14 
   65       2.390110948247e-10       3.802521345143e-14      -5.068400802273e-13       1.879373256998e-16       3.108876029156e-11       3.622883952869e-12      -1.091118653890e-14 
   66       2.421747099960e-10       3.967409724462e-14      -5.594918711272e-13       1.937911079067e-16       3.000632623410e-11       3.513122245620e-12      -1.082547520732e-14 
   67       2.453684945300e-10       4.135544204323e-14      -6.137914216482e-13       1.997340765331e-16       2.897210562510e-11       3.408064782074e-12      -1.071182770804e-14 
   68       2.485918655383e-10       4.306800659031e-14      -6.696886788826e-13       2.057658412717e-16       2.797987340431e-11       3.306953291179e-12      -1.059015784161e-14 
   69       2.518460266460e-10       4.481092404740e-14      -7.271695819498e-13       2.118862418530e-16       2.702890513044e-11       3.209710546430e-12      -1.046378761028e-14 
   70       2.551323248830e-10       4.658339602227e-14      -7.862301263840e-13       2.180951804951e-16       2.611942024497e-11       3.116390133909e-12      -1.033148504239e-14 
   71       2.584516358555e-10       4.838458169297e-14      -8.468670376307e-13       2.243925614435e-16       2.525090770034e-11       3.026974789670e-12      -1.019181842672e-14 
   72       2.618043327720e-10       5.021359770679e-14      -9.090778751403e-13       2.307782913165e-16       2.442208818490e-11       2.941372653620e-12      -1.004314783040e-14 
   73       2.651902554690e-10       5.206951807924e-14      -9.728611364605e-13       2.372522794512e-16       2.363087634775e-11       2.859413523411e-12      -9.883616616785e-15 
   74       2.686086794371e-10       5.395137409307e-14      -1.038216361330e-12       2.438144382487e-16       2.287434302370e-11       2.780845108317e-12      -9.711142963424e-15 
   75       2.720582848469e-10       5.585815419727e-14      -1.105144235772e-12       2.504646835203e-16       2.214867745819e-11       2.705329283120e-12      -9.523411379926e-15 
   76       2.755377727603e-10       5.778875729714e-14      -1.173638493289e-12       2.572030109666e-16       2.145013387847e-11       2.632529133864e-12      -9.319095152547e-15 
   77       2.790479119624e-10       5.974184301431e-14      -1.243659683338e-12       2.640297409537e-16       2.077815398820e-11       2.562396701412e-12      -9.101799784515e-15 
   78       2.825898108400e-10       6.171595381058e-14      -1.315156786306e-12       2.709453192083e-16       2.013274789057e-11       2.494931147161e-12      -8.876826591788e-15 
   79       2.861642858912e-10       6.370955813468e-14      -1.388074928966e-12       2.779502465199e-16       1.951354295018e-11       2.430090762250e-12      -8.650022059015e-15 
   80       2.897718440234e-10       6.572104936554e-14      -1.462355320368e-12       2.850450806477e-16       1.891976620274e-11       2.367791083204e-12      -8.427794598599e-15 
   81       2.934126648494e-10       6.774874475551e-14      -1.537935187724e-12       2.922304382275e-16       1.835022676482e-11       2.307903007582e-12      -8.217131309755e-15 
   82       2.970865829850e-10       6.979088437365e-14      -1.614747712292e-12       2.995069966781e-16       1.780329824358e-11       2.250250909618e-12      -8.025614737572e-15 
   83       3.007930703455e-10       7.184563004887e-14      -1.692721965263e-12       3.068754961086e-16       1.727690114649e-11       2.194610755868e-12      -7.861439632068e-15 
   84       3.045315534401e-10       7.391113232846e-14      -1.771788341620e-12       3.143366733074e-16       1.676900861038e-11       2.140765904068e-12      -7.731328297936e-15 
   85       3.083024644693e-10       7.598574642197e-14      -1.851896037163e-12       3.218910469597e-16       1.627929844906e-11       2.088689255683e-12      -7.633842857183e-15 
   86       3.121063328296e-10       7.806785028518e-14      -1.932998364724e-12       3.295391001545e-16       1.580774400264e-11       2.038387985923e-12      -7.564989873382e-15 
   87       3.159434537146e-10       8.015577987287e-14      -2.015047541675e-12       3.372813458897e-16       1.535410650351e-11       1.989847643986e-12      -7.520204901024e-15 
   88       3.198138760415e-10       8.224782922522e-14      -2.097994718214e-12       3.451183278383e-16       1.491792628131e-11       1.943031238167e-12      -7.494333926777e-15 
   89       3.237173903789e-10       8.434225055414e-14      -2.181790005657e-12       3.530506211132e-16       1.449851396791e-11       1.897878320973e-12      -7.481614810742e-15 
   90       3.276535168739e-10       8.643725432963e-14      -2.266382504727e-12       3.610788330329e-16       1.409494170250e-11       1.854304074230e-12      -7.475658727710e-15 
   91       3.316214931789e-10       8.853100936614e-14      -2.351720333838e-12       3.692036038867e-16       1.370603433653e-11       1.812198394196e-12      -7.469431608416e-15 
   92       3.356202623791e-10       9.062164290888e-14      -2.437750657389e-12       3.774256077000e-16       1.333036063876e-11       1.771424976670e-12      -7.455235580798e-15 
   93       3.396488031003e-10       9.270726442399e-14      -2.524418548040e-12       3.857454659090e-16       1.296657307100e-11       1.731854977062e-12      -7.426394597625e-15 
   94       3.437072028476e-10       9.478604087410e-14      -2.611663316355e-12       3.941634718703e-16       1.261450467450e-11       1.693475768761e-12      -7.382641630232e-15 
   95       3.477957245264e-10       9.685613297656e-14      -2.699421678870e-12       4.026798261394e-16       1.227422166193e-11       1.656296926604e-12      -7.325511165908e-15 
   96       3.519144713689e-10       9.891567291463e-14      -2.787628887041e-12       4.112947194458e-16       1.194568558945e-11       1.620316675000e-12      -7.256711984559e-15 
   97       3.560633795583e-10       1.009627647492e-13      -2.876218739525e-12       4.200083322630e-16       1.162874934652e-11       1.585521447645e-12      -7.178131993043e-15 
   98       3.602422108526e-10       1.029954848305e-13      -2.965123594461e-12       4.288208343779e-16       1.132315314570e-11       1.551885447236e-12      -7.091843059519e-15 
   99       3.644505452095e-10       1.050118822100e-13      -3.054274381759e-12       4.377323844610e-16       1.102852051239e-11       1.519370205188e-12      -7.000105847788e-15 
  100       3.686877734101e-10       1.070099790519e-13      -3.143600615377e-12       4.467431296362e-16       1.074435427464e-11       1.487924141349e-12      -6.905374651633e-15 
  101       3.729530896834e-10       1.089877710448e-13      -3.233030405610e-12       4.558532050506e-16       1.047003255294e-11       1.457482123714e-12      -6.810302229168e-15 
  102       3.772454843306e-10       1.109432278139e-13      -3.322490471369e-12       4.650627334447e-16       1.020480475000e-11       1.427965028144e-12      -6.717744637176e-15 
  103       3.815637363489e-10       1.128742933322e-13      -3.411906152465e-12       4.743718247219e-16       9.947787540530e-12       1.399279298078e-12      -6.630766065457e-15 
  104       3.859066722503e-10       1.147789404394e-13      -3.501202606878e-12       4.837807050944e-16       9.698165215437e-12       1.371338767312e-12      -6.551976838302e-15 
  105       3.902739982193e-10       1.166553418977e-13      -3.590308560298e-12       4.932901253152e-16       9.455830173978e-12       1.344134433986e-12      -6.481435160590e-15 
  106       3.946655671404e-10       1.185017233183e-13      -3.679153088350e-12       5.029010070470e-16       9.220821879355e-12       1.317673335111e-12      -6.418469621259e-15 
  107       3.990811180451e-10       1.203163121123e-13      -3.767664501837e-12       5.126143191928e-16       8.993128487248e-12       1.291956931903e-12      -6.362318251652e-15 
