# dimensionless total [l(l+1)/2pi] C_l's
# for l=2 to 3100, i.e. number of multipoles equal to 3099
#
# -> if you prefer output in CAMB/HealPix/LensPix units/order, set 'format' to 'camb' in input file
# -> if you don't want to see such a header, set 'headers' to 'no' in input file
# -> for CMB lensing (phi), these are C_l^phi-phi for the lensing potential.
#    Remember the conversion factors:
#    C_l^dd (deflection) = l(l+1) C_l^phi-phi
#    C_l^gg (shear/convergence) = 1/4 (l(l+1))^2 C_l^phi-phi
#
# 1:l     2:TT                     3:EE                     4:TE                     5:BB                     6:phiphi                 7:TPhi                   8:Ephi               
    2       1.448025441361e-10       4.694628198013e-15       3.803210184013e-13       0.000000000000e+00       8.662710158543e-09       4.758906483925e-10      -2.000854222505e-12 
    3       1.369627969266e-10       6.379899379752e-15       4.374123653344e-13       0.000000000000e+00       5.327987263151e-09       3.379827782295e-10      -1.568404531612e-12 
    4       1.294924304976e-10       5.877972477169e-15       4.177250645274e-13       0.000000000000e+00       3.705927659986e-09       2.563038283242e-10      -1.076406676843e-12 
    5       1.238410095343e-10       4.192038849260e-15       3.628997066516e-13       0.000000000000e+00       2.767955786405e-09       2.026687753871e-10      -6.447312300571e-13 
    6       1.199185519102e-10       2.481985748450e-15       2.977188429670e-13       0.000000000000e+00       2.163536910750e-09       1.650195963175e-10      -3.099719108912e-13 
    7       1.173430435930e-10       1.355059922279e-15       2.371076741548e-13       0.000000000000e+00       1.746577812419e-09       1.373586891595e-10      -8.006867750755e-14 
    8       1.158067832109e-10       8.266494419948e-16       1.882364749787e-13       0.000000000000e+00       1.444311581012e-09       1.163531829339e-10       5.365629348742e-14 
    9       1.150481307885e-10       6.381927417030e-16       1.535137016519e-13       0.000000000000e+00       1.216681470943e-09       1.000026123938e-10       1.095460005820e-13 
   10       1.148468653594e-10       5.536199124793e-16       1.324635160311e-13       0.000000000000e+00       1.040135675694e-09       8.702416153896e-11       1.105505054069e-13 
   11       1.151103233895e-10       4.743504498884e-16       1.228332314094e-13       0.000000000000e+00       8.770841366858e-10       7.685956063143e-11       8.009698481424e-14 
   12       1.157120942320e-10       4.035035891659e-16       1.216286279292e-13       0.000000000000e+00       7.666025903933e-10       6.800850988976e-11       3.784990072994e-14 
   13       1.165784461866e-10       3.667908735865e-16       1.258789678942e-13       0.000000000000e+00       6.758824261302e-10       6.079890463460e-11      -1.272139703500e-15 
   14       1.176342895569e-10       3.684415983149e-16       1.331211081623e-13       0.000000000000e+00       6.003819008853e-10       5.450315989253e-11      -2.928549527610e-14 
   15       1.188860805482e-10       3.938209029385e-16       1.416637941696e-13       0.000000000000e+00       5.368140395875e-10       4.921535301215e-11      -4.287739899053e-14 
   16       1.202816012366e-10       4.299190247698e-16       1.504513663410e-13       0.000000000000e+00       4.827535759934e-10       4.468226102541e-11      -4.354871329767e-14 
   17       1.217967127270e-10       4.763858308474e-16       1.589662631518e-13       0.000000000000e+00       4.363680031523e-10       4.073606858681e-11      -3.537133862689e-14 
   18       1.233960609445e-10       5.417256035918e-16       1.672977622533e-13       0.000000000000e+00       3.960988090577e-10       3.725071755536e-11      -2.350887885864e-14 
   19       1.250911335280e-10       6.306641097954e-16       1.757067814720e-13       0.000000000000e+00       3.613098366308e-10       3.419622607885e-11      -1.175898160353e-14 
   20       1.268549087234e-10       7.451506540256e-16       1.844741365395e-13       0.000000000000e+00       3.306629738832e-10       3.149988537653e-11      -3.677425121645e-15 
   21       1.286963239959e-10       8.833159427826e-16       1.937495942275e-13       0.000000000000e+00       3.036787765012e-10       2.911687162223e-11      -2.459064367164e-16 
   22       1.306025007739e-10       1.041623023099e-15       2.035717034095e-13       0.000000000000e+00       2.797135071328e-10       2.697333764403e-11      -1.199194136510e-15 
   23       1.325690735103e-10       1.220185279854e-15       2.137183405604e-13       0.000000000000e+00       2.584390094915e-10       2.504523278569e-11      -5.242409179584e-15 
   24       1.345750682156e-10       1.419955034344e-15       2.238149816282e-13       0.000000000000e+00       2.393648080553e-10       2.330349257925e-11      -1.043381439388e-14 
   25       1.366342025448e-10       1.640712718972e-15       2.335014232616e-13       0.000000000000e+00       2.222674865617e-10       2.174387342631e-11      -1.519802883853e-14 
   26       1.387518515853e-10       1.881867954853e-15       2.423919429123e-13       0.000000000000e+00       2.068384999877e-10       2.035080092895e-11      -1.808945758196e-14 
   27       1.409129206271e-10       2.144084721022e-15       2.502095342223e-13       0.000000000000e+00       1.928933867276e-10       1.909151907742e-11      -1.877523804825e-14 
   28       1.430882234372e-10       2.428600503515e-15       2.567390556530e-13       0.000000000000e+00       1.801923346094e-10       1.792176118737e-11      -1.741919367516e-14 
   29       1.452880789709e-10       2.737391637363e-15       2.619832472236e-13       0.000000000000e+00       1.686708941572e-10       1.684068749173e-11      -1.465776056053e-14 
   30       1.475247661727e-10       3.072906349528e-15       2.660505496128e-13       0.000000000000e+00       1.582057775521e-10       1.585338451725e-11      -1.147560464996e-14 
   31       1.497996365391e-10       3.437569886259e-15       2.690755594268e-13       0.000000000000e+00       1.485840340855e-10       1.495601162051e-11      -8.932778105341e-15 
   32       1.521148803665e-10       3.832402925306e-15       2.710976185178e-13       0.000000000000e+00       1.397562522918e-10       1.413970980143e-11      -7.359228346963e-15 
   33       1.544633322398e-10       4.257871176218e-15       2.721396716214e-13       0.000000000000e+00       1.316602487875e-10       1.338628834772e-11      -6.864306357666e-15 
   34       1.568312111952e-10       4.714369002301e-15       2.722123755763e-13       0.000000000000e+00       1.241830185028e-10       1.267391362515e-11      -7.455261918047e-15 
   35       1.592237266757e-10       5.202722440924e-15       2.712164352463e-13       0.000000000000e+00       1.172864787280e-10       1.200410555880e-11      -8.734038642759e-15 
   36       1.616466960951e-10       5.723850050326e-15       2.690040503389e-13       0.000000000000e+00       1.109154908911e-10       1.138336360521e-11      -1.007977862190e-14 
   37       1.641008496620e-10       6.278625205198e-15       2.654220460827e-13       0.000000000000e+00       1.049873586115e-10       1.081507107272e-11      -1.087513399961e-14 
   38       1.665882822842e-10       6.867870120031e-15       2.603781410944e-13       0.000000000000e+00       9.948688650384e-11       1.029709902035e-11      -1.104576962046e-14 
   39       1.691069037872e-10       7.492353779522e-15       2.537951785108e-13       0.000000000000e+00       9.439673092196e-11       9.822858265273e-12      -1.069571032289e-14 
   40       1.716478569989e-10       8.152788902808e-15       2.455930623943e-13       0.000000000000e+00       8.966848093130e-11       9.381498716573e-12      -9.966274466741e-15 
   41       1.742002147983e-10       8.849822870783e-15       2.357086922302e-13       0.000000000000e+00       8.523955007539e-11       8.961238802834e-12      -9.025364703986e-15 
   42       1.767685152872e-10       9.584015708298e-15       2.241641506103e-13       0.000000000000e+00       8.109698163695e-11       8.561486793990e-12      -8.024785019703e-15 
   43       1.793598111001e-10       1.035584880630e-14       2.110203071832e-13       0.000000000000e+00       7.722985144556e-11       8.184084578503e-12      -7.133483728994e-15 
   44       1.819785039311e-10       1.116572579386e-14       1.963596840107e-13       0.000000000000e+00       7.361011968501e-11       7.829882968200e-12      -6.551407156746e-15 
   45       1.846267375706e-10       1.201402448388e-14       1.802565000433e-13       0.000000000000e+00       7.020266367512e-11       7.498807325734e-12      -6.450480840392e-15 
   46       1.873064227539e-10       1.290128068278e-14       1.626734359985e-13       0.000000000000e+00       6.700216480996e-11       7.190295647312e-12      -6.772480948287e-15 
   47       1.900173083144e-10       1.382805250860e-14       1.435359474655e-13       0.000000000000e+00       6.400493089299e-11       6.902834228140e-12      -7.373644621951e-15 
   48       1.927560884512e-10       1.479486843566e-14       1.227600493739e-13       0.000000000000e+00       6.119776942960e-11       6.633729817105e-12      -8.078413236187e-15 
   49       1.955161431755e-10       1.580222650556e-14       1.002516662953e-13       0.000000000000e+00       5.855728094925e-11       6.379026292672e-12      -8.677645775664e-15 
   50       1.982904785003e-10       1.685052443632e-14       7.592409408581e-14       0.000000000000e+00       5.605691391720e-11       6.134629087034e-12      -8.984415312014e-15 
   51       2.010820900328e-10       1.793982941568e-14       4.975747983832e-14       0.000000000000e+00       5.369202653431e-11       5.900231586238e-12      -9.023398274091e-15 
   52       2.038959638084e-10       1.907004445682e-14       2.175436404783e-14       0.000000000000e+00       5.146040614343e-11       5.676310476159e-12      -8.889804466163e-15 
   53       2.067360160216e-10       2.024096809372e-14      -8.076821836243e-15       0.000000000000e+00       4.935476887781e-11       5.462985283443e-12      -8.697188295355e-15 
   54       2.096049840489e-10       2.145229034020e-14      -3.972155280983e-14       0.000000000000e+00       4.736241823449e-11       5.259991886611e-12      -8.578371941203e-15 
   55       2.125046395525e-10       2.270369499116e-14      -7.316762261261e-14       0.000000000000e+00       4.546912331056e-11       5.066869732878e-12      -8.652417156299e-15 
   56       2.154367394412e-10       2.399520554401e-14      -1.084332919762e-13       0.000000000000e+00       4.367266390361e-11       4.883638635334e-12      -8.913817567253e-15 
   57       2.184021202664e-10       2.532691813355e-14      -1.455457781349e-13       0.000000000000e+00       4.197205226952e-11       4.710243709331e-12      -9.317396366436e-15 
   58       2.214003025102e-10       2.669890281902e-14      -1.845333827276e-13       0.000000000000e+00       4.036343509984e-11       4.546338629995e-12      -9.809455018402e-15 
   59       2.244293941566e-10       2.811120368630e-14      -2.254256248432e-13       0.000000000000e+00       3.883991649768e-11       4.391267469519e-12      -1.032737364883e-14 
   60       2.274859942631e-10       2.956383895028e-14      -2.682533740656e-13       0.000000000000e+00       3.739138095354e-11       4.244046534472e-12      -1.079921143348e-14 
   61       2.305666427060e-10       3.105668988443e-14      -3.130391430233e-13       0.000000000000e+00       3.600730472600e-11       4.103635914737e-12      -1.115963219241e-14 
   62       2.336727678271e-10       3.258913824498e-14      -3.597651178346e-13       0.000000000000e+00       3.468632787603e-11       3.969866445691e-12      -1.140276241580e-14 
   63       2.368066832798e-10       3.416034727385e-14      -4.083981551860e-13       0.000000000000e+00       3.342852642400e-11       3.842689529509e-12      -1.154054266785e-14 
   64       2.399700934207e-10       3.576936233257e-14      -4.588988139747e-13       0.000000000000e+00       3.223253296054e-11       3.721896991025e-12      -1.158756536274e-14 
   65       2.431640459406e-10       3.741510747715e-14      -5.112211761221e-13       0.000000000000e+00       3.109545444212e-11       3.607112107360e-12      -1.156119314007e-14 
   66       2.463888844949e-10       3.909638203296e-14      -5.653126673877e-13       0.000000000000e+00       3.001278998682e-11       3.497780637557e-12      -1.148167724015e-14 
   67       2.496442013337e-10       4.081185716956e-14      -6.211138781824e-13       0.000000000000e+00       2.897834866995e-11       3.393161852212e-12      -1.137227587942e-14 
   68       2.529294172267e-10       4.256020845723e-14      -6.785694344467e-13       0.000000000000e+00       2.798590419810e-11       3.292522021389e-12      -1.125439341915e-14 
   69       2.562457635747e-10       4.434055238225e-14      -7.376635686720e-13       0.000000000000e+00       2.703473201727e-11       3.195780456351e-12      -1.113158954287e-14 
   70       2.595946186745e-10       4.615209253448e-14      -7.983914677225e-13       0.000000000000e+00       2.612505164825e-11       3.102978859599e-12      -1.100252768465e-14 
   71       2.629768851963e-10       4.799399150334e-14      -8.607489620686e-13       0.000000000000e+00       2.525635197358e-11       3.014086724587e-12      -1.086565873841e-14 
   72       2.663929588574e-10       4.986537093056e-14      -9.247326292103e-13       0.000000000000e+00       2.442735345467e-11       2.928997543321e-12      -1.071921208784e-14 
   73       2.698426970962e-10       5.176531156276e-14      -9.903398971016e-13       0.000000000000e+00       2.363597034890e-11       2.847525013949e-12      -1.056118663638e-14 
   74       2.733253877456e-10       5.369285330418e-14      -1.057569147574e-12       0.000000000000e+00       2.287927292676e-11       2.769399248356e-12      -1.038934183707e-14 
   75       2.768397177073e-10       5.564699526927e-14      -1.126419819762e-12       0.000000000000e+00       2.215344968897e-11       2.694262979755e-12      -1.020118872253e-14 
   76       2.803843938596e-10       5.762663706455e-14      -1.196884296551e-12       0.000000000000e+00       2.145475412811e-11       2.621764012070e-12      -9.995264720340e-15 
   77       2.839602057474e-10       5.963039015573e-14      -1.268921627198e-12       0.000000000000e+00       2.078262785199e-11       2.551860414314e-12      -9.775246309978e-15 
   78       2.875682838680e-10       6.165673203835e-14      -1.342479178540e-12       0.000000000000e+00       2.013708097898e-11       2.484564348405e-12      -9.546573516230e-15 
   79       2.912094631444e-10       6.370406082316e-14      -1.417500362855e-12       0.000000000000e+00       1.951774080823e-11       2.419848975174e-12      -9.315249730109e-15 
   80       2.948842649739e-10       6.577069408366e-14      -1.493924572783e-12       0.000000000000e+00       1.892383422556e-11       2.357646635469e-12      -9.087859063845e-15 
   81       2.985928792761e-10       6.785486770360e-14      -1.571687116257e-12       0.000000000000e+00       1.835417010956e-11       2.297847031269e-12      -8.871583705869e-15 
   82       3.023351465417e-10       6.995473472450e-14      -1.650719151433e-12       0.000000000000e+00       1.780712173751e-11       2.240295406787e-12      -8.674221275801e-15 
   83       3.061105398806e-10       7.206836419318e-14      -1.730947621615e-12       0.000000000000e+00       1.728060919145e-11       2.184790729585e-12      -8.504202179438e-15 
   84       3.099184862946e-10       7.419381609576e-14      -1.812300876523e-12       0.000000000000e+00       1.677260519277e-11       2.131135767239e-12      -8.368454934178e-15 
   85       3.137594310126e-10       7.632938295745e-14      -1.894726749328e-12       0.000000000000e+00       1.628278749493e-11       2.079300840006e-12      -8.265557524919e-15 
   86       3.176339175068e-10       7.847338636808e-14      -1.978177371035e-12       0.000000000000e+00       1.581112943840e-11       2.029284006248e-12      -8.191477228699e-15 
   87       3.215422518862e-10       8.062410458113e-14      -2.062603780642e-12       0.000000000000e+00       1.535739221040e-11       1.981060647794e-12      -8.141603161512e-15 
   88       3.254844906467e-10       8.277977263996e-14      -2.147955955635e-12       0.000000000000e+00       1.492111604807e-11       1.934582523231e-12      -8.110727464731e-15 
   89       3.294604284203e-10       8.493858250414e-14      -2.234182842489e-12       0.000000000000e+00       1.450161144157e-11       1.889776821216e-12      -8.093026491533e-15 
   90       3.334695857252e-10       8.709868317567e-14      -2.321232387162e-12       0.000000000000e+00       1.409795033718e-11       1.846545213777e-12      -8.082041993319e-15 
   91       3.375111967152e-10       8.925818082532e-14      -2.409051565592e-12       0.000000000000e+00       1.370895734046e-11       1.804762909614e-12      -8.070662306138e-15 
   92       3.415841969292e-10       9.141513891887e-14      -2.497586414196e-12       0.000000000000e+00       1.333320091932e-11       1.764277707404e-12      -8.051103537113e-15 
   93       3.456875581332e-10       9.356760118521e-14      -2.586780795475e-12       0.000000000000e+00       1.296933325192e-11       1.724947326663e-12      -8.016616480251e-15 
   94       3.498213770608e-10       9.571366419779e-14      -2.676572416230e-12       0.000000000000e+00       1.261718734593e-11       1.686759879107e-12      -7.966941890721e-15 
   95       3.539859285316e-10       9.785141599371e-14      -2.766896264083e-12       0.000000000000e+00       1.227682942929e-11       1.649729850155e-12      -7.903644717506e-15 
   96       3.581813255633e-10       9.997891463846e-14      -2.857685831968e-12       0.000000000000e+00       1.194822105058e-11       1.613861020175e-12      -7.828466289718e-15 
   97       3.624075118864e-10       1.020941886658e-13      -2.948873131265e-12       0.000000000000e+00       1.163121506793e-11       1.579146043218e-12      -7.743329191830e-15 
   98       3.666642544579e-10       1.041952375175e-13      -3.040388704932e-12       0.000000000000e+00       1.132555163791e-11       1.545566025753e-12      -7.650342138898e-15 
   99       3.709511359756e-10       1.062800319834e-13      -3.132161640640e-12       0.000000000000e+00       1.103085420445e-11       1.513090105399e-12      -7.551804851790e-15 
  100       3.752675473921e-10       1.083465146409e-13      -3.224119583908e-12       0.000000000000e+00       1.074662548775e-11       1.481675029656e-12      -7.450212932415e-15 
  101       3.796126804292e-10       1.103926002949e-13      -3.316188751236e-12       0.000000000000e+00       1.047224347319e-11       1.451264734641e-12      -7.348262738951e-15 
  102       3.839855200916e-10       1.124161764178e-13      -3.408293943239e-12       0.000000000000e+00       1.020695740023e-11       1.421789923820e-12      -7.248856261067e-15 
  103       3.883848371813e-10       1.144151035891e-13      -3.500358557781e-12       0.000000000000e+00       9.949883751321e-12       1.393167646740e-12      -7.155105995156e-15 
  104       3.928094499321e-10       1.163872710630e-13      -3.592305834427e-12       0.000000000000e+00       9.700206639731e-12       1.365320662022e-12      -7.069663793966e-15 
  105       3.972590652884e-10       1.183307710715e-13      -3.684062750961e-12       0.000000000000e+00       9.457818441165e-12       1.338239412603e-12      -6.992593661099e-15 
  106       4.017335378442e-10       1.202437489964e-13      -3.775556680170e-12       0.000000000000e+00       9.222758627185e-12       1.311927676059e-12      -6.923219353154e-15 
  107       4.062326063967e-10       1.221243513780e-13      -3.866714231867e-12       0.000000000000e+00       8.995015350534e-12       1.286383326548e-12      -6.860772222155e-15 
