# Matter power spectrum P(k) at redshift z=0
# for k=1.0432e-05 to 1.4771 h/Mpc,
# number of wavenumbers equal to 615
#    1:k (h/Mpc)              2:P (Mpc/h)^3        
       1.043203858107e-05       5.025461770413e+01 
       2.328528460833e-05       1.092649126685e+02 
       3.618354992688e-05       1.673563677505e+02 
       4.916138898527e-05       2.251077056420e+02 
       6.225392543635e-05       2.828550565085e+02 
       7.549716398446e-05       3.408544266395e+02 
       8.892831216439e-05       3.993273907293e+02 
       1.025861163151e-04       4.584798990518e+02 
       1.165112160437e-04       5.185119885948e+02 
       1.307465215080e-04       5.796237246902e+02 
       1.453376178544e-04       6.420193794719e+02 
       1.603332010888e-04       7.059107281708e+02 
       1.757855494872e-04       7.715198959237e+02 
       1.917510342924e-04       8.390819859450e+02 
       2.082906728034e-04       9.088476188861e+02 
       2.254707259151e-04       9.810854566449e+02 
       2.433633405456e-04       1.056084747442e+03 
       2.620472349776e-04       1.134157900915e+03 
       2.816084216826e-04       1.215643075942e+03 
       3.021409573604e-04       1.300906735925e+03 
       3.237477033507e-04       1.390346093522e+03 
       3.465410708536e-04       1.484391327178e+03 
       3.706437141701e-04       1.583507403704e+03 
       3.961891211741e-04       1.688195284038e+03 
       4.233220334705e-04       1.798992223787e+03 
       4.521986096699e-04       1.916470809585e+03 
       4.829862252053e-04       2.041236302929e+03 
       5.158627835691e-04       2.173921806602e+03 
       5.510154007130e-04       2.315180741863e+03 
       5.886383222886e-04       2.465676150624e+03 
       6.289299496035e-04       2.626066443259e+03 
       6.720888924122e-04       2.796987427124e+03 
       7.183090414319e-04       2.979030792249e+03 
       7.677737628488e-04       3.172719697996e+03 
       8.206494551139e-04       3.378482663148e+03 
       8.770788579274e-04       3.596627535196e+03 
       9.371746358590e-04       3.827317785299e+03 
       1.001013838640e-03       4.070553604788e+03 
       1.068633833249e-03       4.326160143455e+03 
       1.140030191132e-03       4.593784666077e+03 
       1.215156804987e-03       4.872903448501e+03 
       1.293928239919e-03       5.162838038670e+03 
       1.376224050062e-03       5.462779312907e+03 
       1.461894572511e-03       5.771816834582e+03 
       1.477104874446e-03       5.826344272145e+03 
       1.550767587540e-03       6.088970584900e+03 
       1.642655220455e-03       6.413222258163e+03 
       1.737360540638e-03       6.743543894606e+03 
       1.834683452941e-03       7.078922425250e+03 
       1.934425636742e-03       7.418379464722e+03 
       2.036394436453e-03       7.760974874614e+03 
       2.140405724302e-03       8.105841863923e+03 
       2.246285834822e-03       8.452186044036e+03 
       2.353872713066e-03       8.799273392756e+03 
       2.463016432479e-03       9.146438645533e+03 
       2.573579232829e-03       9.493083296251e+03 
       2.685435211547e-03       9.838672328913e+03 
       2.798469779827e-03       1.018273016590e+04 
       2.912578972021e-03       1.052483615270e+04 
       3.027668675824e-03       1.086461981825e+04 
       3.143653832701e-03       1.120175613117e+04 
       3.260457643301e-03       1.153596096200e+04 
       3.378010801091e-03       1.186698685350e+04 
       3.496250768764e-03       1.219461918538e+04 
       3.615121105577e-03       1.251867264421e+04 
       3.734570849273e-03       1.283898802315e+04 
       3.854553953119e-03       1.315542935639e+04 
       3.975028776532e-03       1.346788137225e+04 
       4.095957626507e-03       1.377624723729e+04 
       4.217306346336e-03       1.408044653571e+04 
       4.339043947749e-03       1.438041343876e+04 
       4.461142282565e-03       1.467609503751e+04 
       4.583575749982e-03       1.496744984247e+04 
       4.706321035877e-03       1.525444645779e+04 
       4.829356880703e-03       1.553706268412e+04 
       4.952663872872e-03       1.581528374377e+04 
       5.076224264784e-03       1.608910170027e+04 
       5.200021808964e-03       1.635851461754e+04 
       5.324041612010e-03       1.662352424692e+04 
       5.448270004333e-03       1.688413927828e+04 
       5.572694423876e-03       1.714037271793e+04 
       5.697303312210e-03       1.739224031046e+04 
       5.822086021598e-03       1.763976104617e+04 
       5.947032731785e-03       1.788295679885e+04 
       6.072134375393e-03       1.812185200969e+04 
       6.197382570974e-03       1.835647338893e+04 
       6.322769562851e-03       1.858684965199e+04 
       6.448288166992e-03       1.881301129895e+04 
       6.573931722260e-03       1.903499028258e+04 
       6.699694046446e-03       1.925281984708e+04 
       6.825569396571e-03       1.946653431588e+04 
       6.951552432985e-03       1.967616889328e+04 
       7.077638186888e-03       1.988175950545e+04 
       7.203822030877e-03       2.008334265769e+04 
       7.330099652238e-03       2.028095531560e+04 
       7.456467028669e-03       2.047463481789e+04 
       7.582920406214e-03       2.066441879464e+04 
       7.709456279165e-03       2.085034511696e+04 
       7.836071371738e-03       2.103245184800e+04 
       7.962762621365e-03       2.121077720248e+04 
       8.089527163414e-03       2.138535951632e+04 
       8.216362317233e-03       2.155623720158e+04 
       8.343265573357e-03       2.172344871463e+04 
       8.470234581803e-03       2.188703250667e+04 
       8.597267141317e-03       2.204702697935e+04 
       8.724361189513e-03       2.220347043710e+04 
       8.851514793806e-03       2.235640103332e+04 
       8.978726143072e-03       2.250585673183e+04 
       9.105993539975e-03       2.265187525795e+04 
       9.233315393887e-03       2.279449407448e+04 
       9.360690214372e-03       2.293375035264e+04 
       9.488116605161e-03       2.306968096856e+04 
       9.615593258595e-03       2.320232250194e+04 
       9.743118950484e-03       2.333171124500e+04 
       9.870692535356e-03       2.345788321746e+04 
       9.998312942060e-03       2.358087417679e+04 
       1.012597916969e-02       2.370071963602e+04 
       1.025369028379e-02       2.381745486887e+04 
       1.038144541292e-02       2.393111491582e+04 
       1.050924374531e-02       2.404173457896e+04 
       1.063708452593e-02       2.414934841262e+04 
       1.076496705364e-02       2.425399070312e+04 
       1.089289067864e-02       2.435569544604e+04 
       1.102085480000e-02       2.445449632260e+04 
       1.114885886343e-02       2.455042667381e+04 
       1.127690235924e-02       2.464351948412e+04 
       1.140498482032e-02       2.473380736998e+04 
       1.153310582039e-02       2.482132258131e+04 
       1.166126497231e-02       2.490609701290e+04 
       1.178946192651e-02       2.498816222883e+04 
       1.191769636952e-02       2.506754949312e+04 
       1.204596802265e-02       2.514428981341e+04 
       1.217427664072e-02       2.521841397132e+04 
       1.230262201086e-02       2.528995256292e+04 
       1.243100395150e-02       2.535893602688e+04 
       1.255942231127e-02       2.542539466420e+04 
       1.268787696812e-02       2.548935865599e+04 
       1.281636782845e-02       2.555085806714e+04 
       1.294489482628e-02       2.560992284282e+04 
       1.307345792252e-02       2.566658278893e+04 
       1.320205710428e-02       2.572086742963e+04 
       1.333069238423e-02       2.577280563747e+04 
       1.345936380001e-02       2.582242519363e+04 
       1.358807141372e-02       2.586975293454e+04 
       1.371681531138e-02       2.591481576049e+04 
       1.384559560251e-02       2.595764025486e+04 
       1.397441241971e-02       2.599825498062e+04 
       1.410326591827e-02       2.603668696729e+04 
       1.423215627587e-02       2.607296348213e+04 
       1.436108369222e-02       2.610711145387e+04 
       1.449004838885e-02       2.613915751300e+04 
       1.461905060882e-02       2.616912802771e+04 
       1.474809061652e-02       2.619704912837e+04 
       1.477104874446e-02       2.620180311471e+04 
       1.487716869751e-02       2.622294672289e+04 
       1.500628515833e-02       2.624684650600e+04 
       1.513544032640e-02       2.626877396564e+04 
       1.526463454989e-02       2.628875438810e+04 
       1.539386819768e-02       2.630681285999e+04 
       1.552314165924e-02       2.632297427269e+04 
       1.565245534465e-02       2.633726332432e+04 
       1.578180968458e-02       2.634970452230e+04 
       1.591120513025e-02       2.636032218571e+04 
       1.604064215352e-02       2.636914044720e+04 
       1.617012124691e-02       2.637618325528e+04 
       1.629964292366e-02       2.638147437618e+04 
       1.642920771785e-02       2.638503739588e+04 
       1.655881618446e-02       2.638689572177e+04 
       1.668846889954e-02       2.638707258463e+04 
       1.681816646030e-02       2.638559104012e+04 
       1.694790948533e-02       2.638247397067e+04 
       1.707769861472e-02       2.637774408724e+04 
       1.720753451031e-02       2.637142393051e+04 
       1.733741785584e-02       2.636353587290e+04 
       1.746734935722e-02       2.635410211949e+04 
       1.759732974279e-02       2.634314470969e+04 
       1.772735976351e-02       2.633068551783e+04 
       1.785744019332e-02       2.631674625545e+04 
       1.798757182938e-02       2.630134847168e+04 
       1.811775549240e-02       2.628451355463e+04 
       1.824799202698e-02       2.626626273211e+04 
       1.837828230194e-02       2.624661707271e+04 
       1.850862721066e-02       2.622559748660e+04 
       1.863902767151e-02       2.620322472673e+04 
       1.876948462821e-02       2.617951938926e+04 
       1.889999905023e-02       2.615450191414e+04 
       1.903057193327e-02       2.612819258668e+04 
       1.916120429964e-02       2.610061153664e+04 
       1.929189719879e-02       2.607177874045e+04 
       1.942265170776e-02       2.604171402116e+04 
       1.955346893166e-02       2.601043704812e+04 
       1.968435000423e-02       2.597796733925e+04 
       1.981529608839e-02       2.594432425957e+04 
       1.994630837671e-02       2.590952702237e+04 
       2.007738809211e-02       2.587359469047e+04 
       2.020853648835e-02       2.583654617514e+04 
       2.033975485071e-02       2.579840023698e+04 
       2.047104449661e-02       2.575917548681e+04 
       2.060240677628e-02       2.571889038473e+04 
       2.073384307342e-02       2.567756324061e+04 
       2.086535480592e-02       2.563521221498e+04 
       2.099694342658e-02       2.559185531925e+04 
       2.112861042387e-02       2.554751041420e+04 
       2.126035732269e-02       2.550219521211e+04 
       2.139218568519e-02       2.545592727581e+04 
       2.152409711156e-02       2.540872401797e+04 
       2.165609324092e-02       2.536060270319e+04 
       2.178817575218e-02       2.531158044664e+04 
       2.192034636492e-02       2.526167421381e+04 
       2.205260684036e-02       2.521090082104e+04 
       2.218495898232e-02       2.515927693588e+04 
       2.231740463820e-02       2.510681907628e+04 
       2.244994569998e-02       2.505354361080e+04 
       2.258258410532e-02       2.499946675844e+04 
       2.271532183863e-02       2.494460458900e+04 
       2.284816093220e-02       2.488897302287e+04 
       2.298110346731e-02       2.483258783017e+04 
       2.311415157552e-02       2.477546463084e+04 
       2.324730743980e-02       2.471761889585e+04 
       2.338057329586e-02       2.465906594625e+04 
       2.351395143347e-02       2.459982095154e+04 
       2.364744419775e-02       2.453989893149e+04 
       2.378105399062e-02       2.447931475582e+04 
       2.391478327224e-02       2.441808314373e+04 
       2.404863456246e-02       2.435621866179e+04 
       2.418261044237e-02       2.429373572755e+04 
       2.431671355590e-02       2.423064860709e+04 
       2.445094661142e-02       2.416697141451e+04 
       2.458531238346e-02       2.410271811250e+04 
       2.471981371442e-02       2.403790251233e+04 
       2.485445351641e-02       2.397253827378e+04 
       2.498923477306e-02       2.390663890450e+04 
       2.512416054147e-02       2.384021775989e+04 
       2.525923395418e-02       2.377328804174e+04 
       2.539445822124e-02       2.370586280170e+04 
       2.552983663230e-02       2.363795493778e+04 
       2.566537255882e-02       2.356957719450e+04 
       2.580106945632e-02       2.350074216360e+04 
       2.593693086674e-02       2.343146228467e+04 
       2.607296042083e-02       2.336174984300e+04 
       2.620916184069e-02       2.329161697120e+04 
       2.634553894236e-02       2.322107564664e+04 
       2.648209563848e-02       2.315013769435e+04 
       2.661883594107e-02       2.307881478547e+04 
       2.675576396443e-02       2.300711843617e+04 
       2.689288392812e-02       2.293506000935e+04 
       2.703020016000e-02       2.286265071306e+04 
       2.716771709949e-02       2.278990160044e+04 
       2.730543930084e-02       2.271682357021e+04 
       2.744337143657e-02       2.264342736686e+04 
       2.758151830107e-02       2.256972357943e+04 
       2.771988481425e-02       2.249572264121e+04 
       2.785847602538e-02       2.242143483158e+04 
       2.799729711710e-02       2.234687027390e+04 
       2.813635340952e-02       2.227203893567e+04 
       2.827565036450e-02       2.219695062926e+04 
       2.841519359013e-02       2.212161501087e+04 
       2.855498884534e-02       2.204604158167e+04 
       2.869504204470e-02       2.197023968506e+04 
       2.883535926342e-02       2.189421850924e+04 
       2.897594674257e-02       2.181798708696e+04 
       2.911681089442e-02       2.174155429233e+04 
       2.925795830813e-02       2.166492884378e+04 
       2.939939575557e-02       2.158811930367e+04 
       2.954113019740e-02       2.151113407640e+04 
       2.968316878942e-02       2.143398140871e+04 
       2.982551888918e-02       2.135666939064e+04 
       2.996818806287e-02       2.127920595490e+04 
       3.011118409249e-02       2.120159887562e+04 
       3.025451498332e-02       2.112385576851e+04 
       3.039818897176e-02       2.104598409229e+04 
       3.054221453346e-02       2.096799114626e+04 
       3.068660039180e-02       2.088988407032e+04 
       3.083135552682e-02       2.081166984636e+04 
       3.097648918447e-02       2.073335529594e+04 
       3.112201088632e-02       2.065494708166e+04 
       3.126793043969e-02       2.057645170468e+04 
       3.141425794824e-02       2.049787550647e+04 
       3.156100382313e-02       2.041922466809e+04 
       3.170817879456e-02       2.034050520753e+04 
       3.185579392398e-02       2.026172298220e+04 
       3.200386061683e-02       2.018288368630e+04 
       3.215239063591e-02       2.010399285207e+04 
       3.230139611535e-02       2.002505584682e+04 
       3.245088957534e-02       1.994607787425e+04 
       3.260088393757e-02       1.986706397348e+04 
       3.275139254139e-02       1.978801901743e+04 
       3.290242916086e-02       1.970894771300e+04 
       3.305400802260e-02       1.962985459848e+04 
       3.320614382465e-02       1.955074404554e+04 
       3.335885175622e-02       1.947162025663e+04 
       3.351214751855e-02       1.939248726201e+04 
       3.366604734684e-02       1.931334892159e+04 
       3.382056803336e-02       1.923420892338e+04 
       3.397572695188e-02       1.915507078009e+04 
       3.413154208334e-02       1.907593782924e+04 
       3.428803204301e-02       1.899681323246e+04 
       3.444521610921e-02       1.891769997110e+04 
       3.460311425355e-02       1.883860084748e+04 
       3.476174717303e-02       1.875951848150e+04 
       3.492113632394e-02       1.868045530784e+04 
       3.508130395772e-02       1.860141357681e+04 
       3.524227315907e-02       1.852239534748e+04 
       3.540406788621e-02       1.844340249052e+04 
       3.556671301370e-02       1.836443668048e+04 
       3.573023437783e-02       1.828549939714e+04 
       3.589465882489e-02       1.820659191933e+04 
       3.606001426245e-02       1.812771532397e+04 
       3.622632971394e-02       1.804887048068e+04 
       3.639363537674e-02       1.797005804892e+04 
       3.656196268408e-02       1.789127847416e+04 
       3.673134437109e-02       1.781253198485e+04 
       3.690181454525e-02       1.773381858447e+04 
       3.707340876158e-02       1.765513804834e+04 
       3.724616410320e-02       1.757648991993e+04 
       3.742011926731e-02       1.749787350244e+04 
       3.759531465740e-02       1.741928785484e+04 
       3.777179248209e-02       1.734073178278e+04 
       3.794959686108e-02       1.726220383342e+04 
       3.812877393904e-02       1.718370228850e+04 
       3.830937200797e-02       1.710522515353e+04 
       3.849144163889e-02       1.702677015104e+04 
       3.867503582371e-02       1.694833470987e+04 
       3.886021012819e-02       1.686991595577e+04 
       3.904702285709e-02       1.679151069992e+04 
       3.923553523265e-02       1.671311542729e+04 
       3.942581158768e-02       1.663472627944e+04 
       3.961791957483e-02       1.655633904973e+04 
       3.981193039342e-02       1.647794915971e+04 
       4.000791903596e-02       1.639955164474e+04 
       4.020596455609e-02       1.632114113846e+04 
       4.040615036043e-02       1.624271185158e+04 
       4.060856452678e-02       1.616425754978e+04 
       4.081330015160e-02       1.608577153121e+04 
       4.102045573005e-02       1.600724660347e+04 
       4.123013557220e-02       1.592867505324e+04 
       4.144245025965e-02       1.585004861613e+04 
       4.165751714722e-02       1.577135844589e+04 
       4.187546091518e-02       1.569259507642e+04 
       4.209641417813e-02       1.561374838352e+04 
       4.232051815749e-02       1.553480753768e+04 
       4.254792342570e-02       1.545576095823e+04 
       4.277879073141e-02       1.537659626000e+04 
       4.301329191618e-02       1.529730019225e+04 
       4.325161093502e-02       1.521785857173e+04 
       4.349394499505e-02       1.513825621060e+04 
       4.374050582860e-02       1.505847683418e+04 
       4.399152112013e-02       1.497850298495e+04 
       4.424723610924e-02       1.489831592362e+04 
       4.450791539608e-02       1.481789550928e+04 
       4.477384497998e-02       1.473722006503e+04 
       4.504533456765e-02       1.465626623079e+04 
       4.532272019388e-02       1.457500879115e+04 
       4.560636720583e-02       1.449342047742e+04 
       4.589667367159e-02       1.441147174453e+04 
       4.619407428572e-02       1.432913050938e+04 
       4.649904485888e-02       1.424636185213e+04 
       4.681210749668e-02       1.416312766321e+04 
       4.713383659484e-02       1.407938623279e+04 
       4.746486580495e-02       1.399509176910e+04 
       4.780589615943e-02       1.391019382343e+04 
       4.815770558628e-02       1.382463660868e+04 
       4.852116009788e-02       1.373835818038e+04 
       4.889722700486e-02       1.365128944731e+04 
       4.928699059083e-02       1.356335296572e+04 
       4.969167079142e-02       1.347446146448e+04 
       5.011264555738e-02       1.338451601335e+04 
       5.055147775600e-02       1.329340374576e+04 
       5.100994768651e-02       1.320099498036e+04 
       5.149009256835e-02       1.310713957323e+04 
       5.199425471903e-02       1.301166221989e+04 
       5.252514058970e-02       1.291435636104e+04 
       5.308589338497e-02       1.281497619150e+04 
       5.368018266775e-02       1.271322604645e+04 
       5.431231512433e-02       1.260874617845e+04 
       5.498737147201e-02       1.250109345671e+04 
       5.571137515044e-02       1.238971494465e+04 
       5.649149853319e-02       1.227391138576e+04 
       5.733631105898e-02       1.215278640331e+04 
       5.825606917783e-02       1.202517568321e+04 
       5.926303706974e-02       1.188954856213e+04 
