# dimensionless total [l(l+1)/2pi] C_l's
# for l=2 to 3100, i.e. number of multipoles equal to 3099
#
# -> if you prefer output in CAMB/HealPix/LensPix units/order, set 'format' to 'camb' in input file
# -> if you don't want to see such a header, set 'headers' to 'no' in input file
# -> for CMB lensing (phi), these are C_l^phi-phi for the lensing potential.
#    Remember the conversion factors:
#    C_l^dd (deflection) = l(l+1) C_l^phi-phi
#    C_l^gg (shear/convergence) = 1/4 (l(l+1))^2 C_l^phi-phi
#
# 1:l     2:TT                     3:EE                     4:TE                     5:BB                     6:phiphi                 7:TPhi                   8:Ephi               
    2       1.449333191924e-10       4.873935901666e-15       3.908389687512e-13       0.000000000000e+00       8.479404942183e-09       4.760270976419e-10      -2.031795887393e-12 
    3       1.370494053460e-10       6.828762491198e-15       4.614824761559e-13       0.000000000000e+00       5.314305234871e-09       3.388596359737e-10      -1.606772973781e-12 
    4       1.295059581087e-10       6.595973432409e-15       4.560552754046e-13       0.000000000000e+00       3.710221571263e-09       2.568640331334e-10      -1.120060416670e-12 
    5       1.237431168163e-10       5.108040634721e-15       4.159245773127e-13       0.000000000000e+00       2.773673513855e-09       2.030527843661e-10      -6.915441518654e-13 
    6       1.196669341821e-10       3.493879900612e-15       3.651819526289e-13       0.000000000000e+00       2.167960020661e-09       1.653123965563e-10      -3.578371116393e-13 
    7       1.168986706588e-10       2.376514460222e-15       3.182563036068e-13       0.000000000000e+00       1.748495971930e-09       1.375883135295e-10      -1.274607462919e-13 
    8       1.151318948837e-10       1.809653367130e-15       2.819690269026e-13       0.000000000000e+00       1.444294852049e-09       1.165502822885e-10       7.707748552891e-15 
    9       1.141087565799e-10       1.575876225465e-15       2.584746302718e-13       0.000000000000e+00       1.216202817301e-09       1.001983861894e-10       6.544783611571e-14 
   10       1.136167485752e-10       1.472440975587e-15       2.471379074144e-13       0.000000000000e+00       1.040297625112e-09       8.723046713632e-11       6.823792446242e-14 
   11       1.135577470188e-10       1.424238819079e-15       2.456686679746e-13       0.000000000000e+00       8.751784352072e-10       7.698840386955e-11       3.873408211420e-14 
   12       1.138119963192e-10       1.449437712991e-15       2.510185826606e-13       0.000000000000e+00       7.648607216690e-10       6.814175318999e-11      -3.102596560462e-15 
   13       1.143070157455e-10       1.581454727249e-15       2.602526166752e-13       0.000000000000e+00       6.742818441380e-10       6.093344332213e-11      -4.192685852613e-14 
   14       1.149733203975e-10       1.825030087941e-15       2.710240800045e-13       0.000000000000e+00       5.989045288306e-10       5.464001673111e-11      -7.048709954023e-14 
   15       1.158134387836e-10       2.159864209990e-15       2.816194387576e-13       0.000000000000e+00       5.354449293130e-10       4.935322995096e-11      -8.446857285312e-14 
   16       1.167807369118e-10       2.563399554760e-15       2.910031312367e-13       0.000000000000e+00       4.814804721359e-10       4.481983474584e-11      -8.523825119291e-14 
   17       1.178513510217e-10       3.024574112015e-15       2.987744991717e-13       0.000000000000e+00       4.351805684342e-10       4.087341923652e-11      -7.673983774378e-14 
   18       1.189941481681e-10       3.542235999285e-15       3.050660127962e-13       0.000000000000e+00       3.949878071215e-10       3.738946851142e-11      -6.412877128448e-14 
   19       1.202214943510e-10       4.114681226715e-15       3.101784499166e-13       0.000000000000e+00       3.602687050273e-10       3.433679176668e-11      -5.124779339809e-14 
   20       1.215050421744e-10       4.737629804728e-15       3.144372955619e-13       0.000000000000e+00       3.296851630594e-10       3.164051814873e-11      -4.170882748848e-14 
   21       1.228546418221e-10       5.404824916346e-15       3.181106546069e-13       0.000000000000e+00       3.027581746855e-10       2.925733543492e-11      -3.663957357394e-14 
   22       1.242589579593e-10       6.109046651761e-15       3.213604178627e-13       0.000000000000e+00       2.788454563170e-10       2.711580439999e-11      -3.596214915439e-14 
   23       1.257152019196e-10       6.847678984609e-15       3.239951916616e-13       0.000000000000e+00       2.576192049819e-10       2.519062095019e-11      -3.853138171140e-14 
   24       1.272036344548e-10       7.619649869891e-15       3.256425508894e-13       0.000000000000e+00       2.385895031024e-10       2.345015984025e-11      -4.251576422765e-14 
   25       1.287378898519e-10       8.423567156935e-15       3.260625150857e-13       0.000000000000e+00       2.215331853599e-10       2.188914918316e-11      -4.630076007441e-14 
   26       1.303230612931e-10       9.258151141421e-15       3.250132994907e-13       0.000000000000e+00       2.061422289921e-10       2.049209007259e-11      -4.833254789213e-14 
   27       1.319463169201e-10       1.012257024811e-14       3.222885143382e-13       0.000000000000e+00       1.922324145715e-10       1.922943180725e-11      -4.820404074212e-14 
   28       1.335812052930e-10       1.101651697581e-14       3.177083589755e-13       0.000000000000e+00       1.795643039904e-10       1.806058500767e-11      -4.600930476400e-14 
   29       1.352383373862e-10       1.194051987292e-14       3.113164551437e-13       0.000000000000e+00       1.680734808189e-10       1.698349609626e-11      -4.236961043763e-14 
   30       1.369291496369e-10       1.289586727292e-14       3.032451256183e-13       0.000000000000e+00       1.576368530405e-10       1.599990289173e-11      -3.826506854699e-14 
   31       1.386540080995e-10       1.388401452473e-14       2.936477049532e-13       0.000000000000e+00       1.480418838750e-10       1.510273677638e-11      -3.474774572441e-14 
   32       1.404156079035e-10       1.490452474305e-14       2.826561027588e-13       0.000000000000e+00       1.392392044461e-10       1.428403044024e-11      -3.215211165583e-14 
   33       1.422077441252e-10       1.595639428796e-14       2.704072490781e-13       0.000000000000e+00       1.311667174396e-10       1.352814184133e-11      -3.059368591237e-14 
   34       1.440173840316e-10       1.703864830592e-14       2.570152194149e-13       0.000000000000e+00       1.237116358404e-10       1.281564273408e-11      -3.008956659315e-14 
   35       1.458494067574e-10       1.815053397111e-14       2.424376696713e-13       0.000000000000e+00       1.168359250127e-10       1.214747673478e-11      -3.027802324052e-14 
   36       1.477087587375e-10       1.929141501832e-14       2.265572651381e-13       0.000000000000e+00       1.104845485717e-10       1.152841232725e-11      -3.058630646686e-14 
   37       1.495953873516e-10       2.046070157183e-14       2.092462675707e-13       0.000000000000e+00       1.045749878865e-10       1.096014598152e-11      -3.043964045073e-14 
   38       1.515121402445e-10       2.165773875098e-14       1.904816195800e-13       0.000000000000e+00       9.909205321684e-11       1.044056151647e-11      -2.976107316922e-14 
   39       1.534582503170e-10       2.288190047914e-14       1.702640672992e-13       0.000000000000e+00       9.401841734506e-11       9.963666376167e-12      -2.863269473115e-14 
   40       1.554263851993e-10       2.413263254838e-14       1.485857419193e-13       0.000000000000e+00       8.930577296741e-11       9.519360514009e-12      -2.716423881935e-14 
   41       1.574069225817e-10       2.540940346386e-14       1.254460516634e-13       0.000000000000e+00       8.489167918660e-11       9.096573620596e-12      -2.548978508416e-14 
   42       1.594040199754e-10       2.671151283201e-14       1.009085863163e-13       0.000000000000e+00       8.076319422961e-11       8.694710727300e-12      -2.375199220408e-14 
   43       1.614236770002e-10       2.803823803035e-14       7.506063188520e-14       0.000000000000e+00       7.690940793131e-11       8.315368445460e-12      -2.211594106776e-14 
   44       1.634689499782e-10       2.938889448983e-14       4.799755584841e-14       0.000000000000e+00       7.330234603964e-11       7.959089520851e-12      -2.077541637802e-14 
   45       1.655407314567e-10       3.076285551628e-14       1.980488584791e-14       0.000000000000e+00       6.990697370844e-11       7.625521784663e-12      -1.989802352052e-14 
   46       1.676411084385e-10       3.215960398528e-14      -9.501659864584e-15       0.000000000000e+00       6.671797411724e-11       7.314178829912e-12      -1.943736082322e-14 
   47       1.697704726913e-10       3.357870681113e-14      -3.993426380459e-14       0.000000000000e+00       6.373165396772e-11       7.023742774767e-12      -1.926730166259e-14 
   48       1.719262683988e-10       3.501980965387e-14      -7.151779902674e-14       0.000000000000e+00       6.093484975815e-11       6.751749089445e-12      -1.923186383196e-14 
   49       1.741027404109e-10       3.648264399391e-14      -1.042909345823e-13       0.000000000000e+00       5.830422342198e-11       6.494504906382e-12      -1.914349334775e-14 
   50       1.762936271562e-10       3.796690553941e-14      -1.382917208418e-13       0.000000000000e+00       5.581329570149e-11       6.248144648231e-12      -1.883319945097e-14 
   51       1.785016851733e-10       3.947183412586e-14      -1.735071681050e-13       0.000000000000e+00       5.345743106668e-11       6.012324233193e-12      -1.832098438153e-14 
   52       1.807313147403e-10       4.099653201391e-14      -2.099118925255e-13       0.000000000000e+00       5.123441713836e-11       5.787388414092e-12      -1.768870829354e-14 
   53       1.829857306787e-10       4.254008358561e-14      -2.474828062512e-13       0.000000000000e+00       4.913698753278e-11       5.573293600959e-12      -1.703298801542e-14 
   54       1.852668491759e-10       4.410155636417e-14      -2.861994925227e-13       0.000000000000e+00       4.715248162893e-11       5.369579692042e-12      -1.646592091247e-14 
   55       1.875756760954e-10       4.568007915798e-14      -3.260453458777e-13       0.000000000000e+00       4.526671000951e-11       5.175600023649e-12      -1.608722485220e-14 
   56       1.899138441522e-10       4.727509688969e-14      -3.670104651455e-13       0.000000000000e+00       4.347745471768e-11       4.991342646756e-12      -1.589089505998e-14 
   57       1.922822593656e-10       4.888618085825e-14      -4.090901361489e-13       0.000000000000e+00       4.178372680961e-11       4.816763732950e-12      -1.583662672449e-14 
   58       1.946805414257e-10       5.051296109782e-14      -4.522845256585e-13       0.000000000000e+00       4.018168197995e-11       4.651529612642e-12      -1.587598595309e-14 
   59       1.971069300550e-10       5.215513040238e-14      -4.965990863003e-13       0.000000000000e+00       3.866444418653e-11       4.494998662660e-12      -1.595201997598e-14 
   60       1.995581913688e-10       5.381244835018e-14      -5.420449614634e-13       0.000000000000e+00       3.722192927510e-11       4.346203193839e-12      -1.599886735041e-14 
   61       2.020310052265e-10       5.548457162109e-14      -5.886287430820e-13       0.000000000000e+00       3.584364664584e-11       4.204119943089e-12      -1.595642768731e-14 
   62       2.045267030197e-10       5.717049133674e-14      -6.363181424773e-13       0.000000000000e+00       3.452823812917e-11       4.068593473936e-12      -1.581910046137e-14 
   63       2.070474320068e-10       5.886897599215e-14      -6.850692974154e-13       0.000000000000e+00       3.327577697609e-11       3.939588845623e-12      -1.559734423795e-14 
   64       2.095947224389e-10       6.057873256090e-14      -7.348368050344e-13       0.000000000000e+00       3.208489848898e-11       3.816912520453e-12      -1.530366880037e-14 
   65       2.121694409106e-10       6.229840500805e-14      -7.855737889269e-13       0.000000000000e+00       3.095271813738e-11       3.700203408581e-12      -1.495272318135e-14 
   66       2.147717437123e-10       6.402657280309e-14      -8.372319662219e-13       0.000000000000e+00       2.987474967371e-11       3.588923912812e-12      -1.456138369447e-14 
   67       2.174010301811e-10       6.576174943290e-14      -8.897617146676e-13       0.000000000000e+00       2.884482324905e-11       3.482350973393e-12      -1.414884196560e-14 
   68       2.200565393469e-10       6.750249609915e-14      -9.431176569685e-13       0.000000000000e+00       2.785673394358e-11       3.379768337920e-12      -1.373278274262e-14 
   69       2.227393845312e-10       6.924779288711e-14      -9.972765778099e-13       0.000000000000e+00       2.690975828303e-11       3.281108628567e-12      -1.331682120943e-14 
   70       2.254508491040e-10       7.099674047955e-14      -1.052223274485e-12       0.000000000000e+00       2.600411354912e-11       3.186425884822e-12      -1.290066658877e-14 
   71       2.281917500122e-10       7.274845305933e-14      -1.107945565316e-12       0.000000000000e+00       2.513928931302e-11       3.095702109040e-12      -1.248379537702e-14 
   72       2.309624075833e-10       7.450205976826e-14      -1.164434497844e-12       0.000000000000e+00       2.431400980718e-11       3.008843457658e-12      -1.206543936994e-14 
   73       2.337626153294e-10       7.625670616592e-14      -1.221684557019e-12       0.000000000000e+00       2.352619629725e-11       2.925676432408e-12      -1.164457368843e-14 
   74       2.365916097515e-10       7.801155568849e-14      -1.279693873384e-12       0.000000000000e+00       2.277292945396e-11       2.845944071539e-12      -1.121990480436e-14 
   75       2.394480401433e-10       7.976579110758e-14      -1.338464431270e-12       0.000000000000e+00       2.205041172493e-11       2.769302141027e-12      -1.078985856628e-14 
   76       2.423305717316e-10       8.151851296806e-14      -1.397993064950e-12       0.000000000000e+00       2.135491039308e-11       2.695407560459e-12      -1.035367566069e-14 
   77       2.452398888243e-10       8.326841029500e-14      -1.458242091387e-12       0.000000000000e+00       2.068586846814e-11       2.624210716052e-12      -9.914955088312e-15 
   78       2.481770037832e-10       8.501403220998e-14      -1.519163675581e-12       0.000000000000e+00       2.004329535409e-11       2.555709780183e-12      -9.478738105177e-15 
   79       2.511426391632e-10       8.675388498189e-14      -1.580708586491e-12       0.000000000000e+00       1.942681925397e-11       2.489861319181e-12      -9.050468672415e-15 
   80       2.541372105026e-10       8.848643137324e-14      -1.642826216321e-12       0.000000000000e+00       1.883566965148e-11       2.426578375885e-12      -8.636004190905e-15 
   81       2.571608091152e-10       9.021008998645e-14      -1.705464599809e-12       0.000000000000e+00       1.826865979265e-11       2.365728552209e-12      -8.241626235913e-15 
   82       2.602131848805e-10       9.192323461015e-14      -1.768570433517e-12       0.000000000000e+00       1.772416916750e-11       2.307132091708e-12      -7.874051291719e-15 
   83       2.632937290355e-10       9.362419356553e-14      -1.832089095118e-12       0.000000000000e+00       1.720012599166e-11       2.250559962131e-12      -7.540441486258e-15 
   84       2.664017963377e-10       9.531131971414e-14      -1.895967525763e-12       0.000000000000e+00       1.669451094662e-11       2.195790462052e-12      -7.246553707175e-15 
   85       2.695377706150e-10       9.698321524816e-14      -1.960163383953e-12       0.000000000000e+00       1.620700272444e-11       2.142794023042e-12      -6.990810886722e-15 
   86       2.727021451312e-10       9.863854314036e-14      -2.024637451607e-12       0.000000000000e+00       1.573757442885e-11       2.091575670693e-12      -6.769262973119e-15 
   87       2.758951875838e-10       1.002759603219e-13      -2.089350972321e-12       0.000000000000e+00       1.528598794273e-11       2.042118304404e-12      -6.577340911949e-15 
   88       2.791169285992e-10       1.018941182163e-13      -2.154265718774e-12       0.000000000000e+00       1.485178517041e-11       1.994381763541e-12      -6.409836093078e-15 
   89       2.823671502272e-10       1.034916632731e-13      -2.219344060140e-12       0.000000000000e+00       1.443427927997e-11       1.948301893594e-12      -6.260879797585e-15 
   90       2.856453744359e-10       1.050672375021e-13      -2.284549029489e-12       0.000000000000e+00       1.403254594554e-11       1.903789612340e-12      -6.123922644689e-15 
   91       2.889508516069e-10       1.066194790069e-13      -2.349844391201e-12       0.000000000000e+00       1.364541458958e-11       1.860729976002e-12      -5.991714038680e-15 
   92       2.922825490297e-10       1.081470225191e-13      -2.415194708368e-12       0.000000000000e+00       1.327145962520e-11       1.818981245409e-12      -5.856281615841e-15 
   93       2.956394719790e-10       1.096485013776e-13      -2.480562833497e-12       0.000000000000e+00       1.290933883862e-11       1.778410646461e-12      -5.710690009860e-15 
   94       2.990217071763e-10       1.111225526473e-13      -2.545901802477e-12       0.000000000000e+00       1.255888577512e-11       1.739009832190e-12      -5.554664373511e-15 
   95       3.024295157233e-10       1.125678137610e-13      -2.611161840423e-12       0.000000000000e+00       1.222016622039e-11       1.700795140430e-12      -5.389778569914e-15 
   96       3.058630076559e-10       1.139829216888e-13      -2.676292861359e-12       0.000000000000e+00       1.189314176025e-11       1.663772022431e-12      -5.217755033996e-15 
   97       3.093221350047e-10       1.153665134920e-13      -2.741244500260e-12       0.000000000000e+00       1.157766578809e-11       1.627934612717e-12      -5.040468643836e-15 
   98       3.128066848550e-10       1.167172268763e-13      -2.805966145086e-12       0.000000000000e+00       1.127347951229e-11       1.593265298944e-12      -4.859950592004e-15 
   99       3.163162724067e-10       1.180337007460e-13      -2.870406968822e-12       0.000000000000e+00       1.098020796367e-11       1.559734291752e-12      -4.678392256900e-15 
  100       3.198503340347e-10       1.193145757577e-13      -2.934515961516e-12       0.000000000000e+00       1.069735600292e-11       1.527299194630e-12      -4.498149074097e-15 
  101       3.234081203493e-10       1.205584948738e-13      -2.998241962312e-12       0.000000000000e+00       1.042430432801e-11       1.495904573765e-12      -4.321744407679e-15 
  102       3.269886892556e-10       1.217641039167e-13      -3.061533691492e-12       0.000000000000e+00       1.016030548162e-11       1.465481527905e-12      -4.151873421584e-15 
  103       3.305908990145e-10       1.229300521217e-13      -3.124339782513e-12       0.000000000000e+00       9.904479858622e-12       1.435947258209e-12      -3.991406950942e-15 
  104       3.342136568769e-10       1.240550327655e-13      -3.186608581856e-12       0.000000000000e+00       9.656015188681e-12       1.407224125315e-12      -3.842768949722e-15 
  105       3.378567181882e-10       1.251379101058e-13      -3.248287448784e-12       0.000000000000e+00       9.414804273370e-12       1.379300678834e-12      -3.705964718112e-15 
  106       3.415199827962e-10       1.261776107011e-13      -3.309323420281e-12       0.000000000000e+00       9.180886355828e-12       1.352178108519e-12      -3.580292294712e-15 
  107       3.452032450340e-10       1.271730858505e-13      -3.369663463919e-12       0.000000000000e+00       8.954249603113e-12       1.325851279862e-12      -3.464942118760e-15 
