# Matter power spectrum P(k) at redshift z=3
# for k=9.87366e-06 to 1.4771 h/Mpc,
# number of wavenumbers equal to 606
#    1:k (h/Mpc)              2:P (Mpc/h)^3        
       9.873660637144e-06       6.244635638093e+00 
       2.251649440715e-05       1.386175682626e+01 
       3.520117817916e-05       2.135609187034e+01 
       4.796058545533e-05       2.880354985674e+01 
       6.082810534413e-05       3.624738162135e+01 
       7.383792941506e-05       4.372017983988e+01 
       8.702534729644e-05       5.124995288984e+01 
       1.004270548187e-04       5.886259674775e+01 
       1.140814785349e-04       6.658315777165e+01 
       1.280291204829e-04       7.443659625699e+01 
       1.423129270653e-04       8.244831653335e+01 
       1.569786858875e-04       9.064457975505e+01 
       1.720754542634e-04       9.905285620822e+01 
       1.876560228200e-04       1.077021473724e+02 
       2.037774171291e-04       1.166232947569e+02 
       2.205014394601e-04       1.258492852268e+02 
       2.378952514558e-04       1.354155579256e+02 
       2.560319966048e-04       1.453603144809e+02 
       2.749914586095e-04       1.557248311022e+02 
       2.948607478623e-04       1.665537679763e+02 
       3.157350029379e-04       1.778954676627e+02 
       3.377180869579e-04       1.898022297359e+02 
       3.609232495414e-04       2.023305435066e+02 
       3.854737135734e-04       2.155412541579e+02 
       4.115031320969e-04       2.294996300910e+02 
       4.391558445182e-04       2.442752909238e+02 
       4.685868438127e-04       2.599419470497e+02 
       4.999613491897e-04       2.765768940422e+02 
       5.334538645408e-04       2.942602002614e+02 
       5.692465961705e-04       3.130735262821e+02 
       6.075271094277e-04       3.330985234115e+02 
       6.484851295044e-04       3.544147790633e+02 
       6.923084431829e-04       3.770973120930e+02 
       7.391779396941e-04       4.012136725364e+02 
       7.892619388479e-04       4.268207652408e+02 
       8.427100837322e-04       4.539615883448e+02 
       8.996472041271e-04       4.826621426149e+02 
       9.601676572502e-04       5.129288093363e+02 
       1.024330693413e-03       5.447464957155e+02 
       1.092157351026e-03       5.780777964114e+02 
       1.163629250693e-03       6.128633186235e+02 
       1.238689448479e-03       6.490231816223e+02 
       1.317245262966e-03       6.864595573997e+02 
       1.399172760517e-03       7.250599989016e+02 
       1.477104874446e-03       7.613599451535e+02 
       1.484322415178e-03       7.647012312203e+02 
       1.572525381995e-03       8.052530695730e+02 
       1.663599838048e-03       8.465821694257e+02 
       1.757356934801e-03       8.885553898225e+02 
       1.853606036718e-03       9.310426376501e+02 
       1.952159061971e-03       9.739183074312e+02 
       2.052833866358e-03       1.017064170097e+03 
       2.155456707258e-03       1.060371874617e+03 
       2.259863886669e-03       1.103740751979e+03 
       2.365902704355e-03       1.147079340579e+03 
       2.473431860810e-03       1.190305359912e+03 
       2.582321442683e-03       1.233345423448e+03 
       2.692452607427e-03       1.276134560647e+03 
       2.803717064241e-03       1.318615615447e+03 
       2.916016428392e-03       1.360738582270e+03 
       3.029261507716e-03       1.402459930264e+03 
       3.143371564459e-03       1.443741952742e+03 
       3.258273582837e-03       1.484552163871e+03 
       3.373901562741e-03       1.524862750952e+03 
       3.490195852427e-03       1.564650080503e+03 
       3.607102527442e-03       1.603894250887e+03 
       3.724572819076e-03       1.642578683192e+03 
       3.842562592868e-03       1.680689744272e+03 
       3.961031875867e-03       1.718216399300e+03 
       4.079944430201e-03       1.755149894156e+03 
       4.199267369858e-03       1.791483469320e+03 
       4.318970817233e-03       1.827212106444e+03 
       4.439027595940e-03       1.862332306969e+03 
       4.559412956436e-03       1.896841900023e+03 
       4.680104331159e-03       1.930739875341e+03 
       4.801081116122e-03       1.964026236572e+03 
       4.922324476114e-03       1.996701871168e+03 
       5.043817170953e-03       2.028768371423e+03 
       5.165543400442e-03       2.060227753606e+03 
       5.287488665955e-03       2.091083285624e+03 
       5.409639646782e-03       2.121338364900e+03 
       5.531984089562e-03       2.150996825602e+03 
       5.654510709342e-03       2.180062887264e+03 
       5.777209100944e-03       2.208541108456e+03 
       5.900069659495e-03       2.236436347741e+03 
       6.023083509074e-03       2.263753727439e+03 
       6.146242438603e-03       2.290498589087e+03 
       6.269538844156e-03       2.316676460634e+03 
       6.392965676999e-03       2.342293021554e+03 
       6.516516396727e-03       2.367354068959e+03 
       6.640184928951e-03       2.391865491343e+03 
       6.763965627051e-03       2.415833246961e+03 
       6.887853237556e-03       2.439263346354e+03 
       7.011842868779e-03       2.462161841938e+03 
       7.135929962360e-03       2.484534818532e+03 
       7.260110267419e-03       2.506388385764e+03 
       7.384379817059e-03       2.527728672327e+03 
       7.508734906975e-03       2.548561817307e+03 
       7.633172075954e-03       2.568893963249e+03 
       7.757688088095e-03       2.588731248339e+03 
       7.882279916567e-03       2.608079797897e+03 
       8.006944728753e-03       2.626945717826e+03 
       8.131679872666e-03       2.645335068713e+03 
       8.256482864496e-03       2.663254675207e+03 
       8.381351377192e-03       2.680709859153e+03 
       8.506283229987e-03       2.697706370058e+03 
       8.631276378765e-03       2.714250080526e+03 
       8.756328907207e-03       2.730346803262e+03 
       8.881439018649e-03       2.746002280353e+03 
       9.006605028567e-03       2.761222183410e+03 
       9.131825357661e-03       2.776012111594e+03 
       9.257098525470e-03       2.790377593862e+03 
       9.382423144471e-03       2.804324090122e+03 
       9.507797914633e-03       2.817856993599e+03 
       9.633221618380e-03       2.830981633940e+03 
       9.758693115924e-03       2.843703278564e+03 
       9.884211340947e-03       2.856027135995e+03 
       1.000977529661e-02       2.867958355295e+03 
       1.013538405182e-02       2.879502028017e+03 
       1.026103673782e-02       2.890663186202e+03 
       1.038673254497e-02       2.901446802497e+03 
       1.051247071981e-02       2.911857788097e+03 
       1.063825056227e-02       2.921900992415e+03 
       1.076407142314e-02       2.931581202361e+03 
       1.088993270166e-02       2.940903143660e+03 
       1.101583384335e-02       2.949871482807e+03 
       1.114177433791e-02       2.958490831006e+03 
       1.126775371734e-02       2.966765748780e+03 
       1.139377155411e-02       2.974700751544e+03 
       1.151982745957e-02       2.982300314899e+03 
       1.164592108234e-02       2.989568879897e+03 
       1.177205210693e-02       2.996510856274e+03 
       1.189822025234e-02       3.003130625851e+03 
       1.202442527089e-02       3.009432544589e+03 
       1.215066694701e-02       3.015420941815e+03 
       1.227694509620e-02       3.021100119687e+03 
       1.240325956399e-02       3.026474340756e+03 
       1.252961022506e-02       3.031547783725e+03 
       1.265599698237e-02       3.036324472698e+03 
       1.278241976632e-02       3.040808265170e+03 
       1.290887853408e-02       3.045002966210e+03 
       1.303537326883e-02       3.048912438067e+03 
       1.316190397920e-02       3.052540588024e+03 
       1.328847069867e-02       3.055891307952e+03 
       1.341507348498e-02       3.058968441303e+03 
       1.354171241974e-02       3.061775779761e+03 
       1.366838760789e-02       3.064317088169e+03 
       1.379509917732e-02       3.066595939116e+03 
       1.392184727854e-02       3.068616145372e+03 
       1.404863208426e-02       3.070381248747e+03 
       1.417545378918e-02       3.071894831600e+03 
       1.430231260965e-02       3.073160438950e+03 
       1.442920878344e-02       3.074181580888e+03 
       1.455614256958e-02       3.074961733889e+03 
       1.468311424811e-02       3.075504341701e+03 
       1.477104874446e-02       3.075742652416e+03 
       1.481012411996e-02       3.075812815989e+03 
       1.493717250682e-02       3.075890536892e+03 
       1.506425975104e-02       3.075740853567e+03 
       1.519138621553e-02       3.075367084660e+03 
       1.531855228370e-02       3.074772518737e+03 
       1.544575835946e-02       3.073960414597e+03 
       1.557300486716e-02       3.072934001787e+03 
       1.570029225163e-02       3.071696480890e+03 
       1.582762097821e-02       3.070251024130e+03 
       1.595499153276e-02       3.068600774391e+03 
       1.608240442176e-02       3.066748848037e+03 
       1.620986017238e-02       3.064698332778e+03 
       1.633735933261e-02       3.062452289121e+03 
       1.646490247134e-02       3.060013750417e+03 
       1.659249017853e-02       3.057385723068e+03 
       1.672012306537e-02       3.054571186831e+03 
       1.684780176441e-02       3.051573095096e+03 
       1.697552692983e-02       3.048394375009e+03 
       1.710329923756e-02       3.045037927947e+03 
       1.723111938559e-02       3.041506629625e+03 
       1.735898809415e-02       3.037803330435e+03 
       1.748690610598e-02       3.033930855858e+03 
       1.761487418665e-02       3.029892006646e+03 
       1.774289312477e-02       3.025689559343e+03 
       1.787096373239e-02       3.021326266337e+03 
       1.799908684526e-02       3.016804856534e+03 
       1.812726332319e-02       3.012128035474e+03 
       1.825549405041e-02       3.007298485689e+03 
       1.838377993594e-02       3.002318867170e+03 
       1.851212191401e-02       2.997191817400e+03 
       1.864052094441e-02       2.991919951838e+03 
       1.876897801297e-02       2.986505863964e+03 
       1.889749413199e-02       2.980952125504e+03 
       1.902607034067e-02       2.975261286765e+03 
       1.915470770564e-02       2.969435876303e+03 
       1.928340732143e-02       2.963478401379e+03 
       1.941217031095e-02       2.957391347826e+03 
       1.954099782611e-02       2.951177180001e+03 
       1.966989104828e-02       2.944838340837e+03 
       1.979885118895e-02       2.938377251778e+03 
       1.992787949023e-02       2.931796312652e+03 
       2.005697722557e-02       2.925097901802e+03 
       2.018614570028e-02       2.918284375787e+03 
       2.031538625228e-02       2.911358069659e+03 
       2.044470025272e-02       2.904321296744e+03 
       2.057408910670e-02       2.897176348686e+03 
       2.070355425400e-02       2.889925495556e+03 
       2.083309716980e-02       2.882570985922e+03 
       2.096271936546e-02       2.875115046838e+03 
       2.109242238933e-02       2.867559884035e+03 
       2.122220782755e-02       2.859907682015e+03 
       2.135207730489e-02       2.852160604237e+03 
       2.148203248565e-02       2.844320793047e+03 
       2.161207507451e-02       2.836390370083e+03 
       2.174220681752e-02       2.828371436256e+03 
       2.187242950300e-02       2.820266071724e+03 
       2.200274496256e-02       2.812076336232e+03 
       2.213315507211e-02       2.803804269045e+03 
       2.226366175290e-02       2.795451888994e+03 
       2.239426697260e-02       2.787021194546e+03 
       2.252497274645e-02       2.778514163889e+03 
       2.265578113835e-02       2.769932754888e+03 
       2.278669426211e-02       2.761278904963e+03 
       2.291771428264e-02       2.752554531245e+03 
       2.304884341721e-02       2.743761530460e+03 
       2.318008393678e-02       2.734901778936e+03 
       2.331143816730e-02       2.725977132637e+03 
       2.344290849116e-02       2.716989426898e+03 
       2.357449734856e-02       2.707940476688e+03 
       2.370620723904e-02       2.698832076450e+03 
       2.383804072294e-02       2.689666000071e+03 
       2.397000042307e-02       2.680444000892e+03 
       2.410208902622e-02       2.671167811785e+03 
       2.423430928494e-02       2.661839145045e+03 
       2.436666401922e-02       2.652459692392e+03 
       2.449915611827e-02       2.643031125076e+03 
       2.463178854243e-02       2.633555093853e+03 
       2.476456432500e-02       2.624033228973e+03 
       2.489748657427e-02       2.614467140280e+03 
       2.503055847555e-02       2.604858417064e+03 
       2.516378329326e-02       2.595208628309e+03 
       2.529716437314e-02       2.585519322536e+03 
       2.543070514446e-02       2.575792028122e+03 
       2.556440912242e-02       2.566028252910e+03 
       2.569827991048e-02       2.556229484600e+03 
       2.583232120291e-02       2.546397190527e+03 
       2.596653678737e-02       2.536532817994e+03 
       2.610093054757e-02       2.526637794044e+03 
       2.623550646602e-02       2.516713525711e+03 
       2.637026862694e-02       2.506761399821e+03 
       2.650522121919e-02       2.496782783289e+03 
       2.664036853936e-02       2.486779022807e+03 
       2.677571499497e-02       2.476751445353e+03 
       2.691126510774e-02       2.466701357794e+03 
       2.704702351706e-02       2.456630046902e+03 
       2.718299498348e-02       2.446538779722e+03 
       2.731918439245e-02       2.436428803260e+03 
       2.745559675814e-02       2.426301344524e+03 
       2.759223722734e-02       2.416157610577e+03 
       2.772911108367e-02       2.405998788507e+03 
       2.786622375179e-02       2.395826045493e+03 
       2.800358080186e-02       2.385640528572e+03 
       2.814118795417e-02       2.375443364811e+03 
       2.827905108390e-02       2.365235661454e+03 
       2.841717622615e-02       2.355018505584e+03 
       2.855556958109e-02       2.344792964140e+03 
       2.869423751935e-02       2.334560084585e+03 
       2.883318658765e-02       2.324320894092e+03 
       2.897242351466e-02       2.314076399979e+03 
       2.911195521700e-02       2.303827589916e+03 
       2.925178880567e-02       2.293575431644e+03 
       2.939193159259e-02       2.283320873379e+03 
       2.953239109749e-02       2.273064843469e+03 
       2.967317505506e-02       2.262808250761e+03 
       2.981429142249e-02       2.252551984643e+03 
       2.995574838719e-02       2.242296914880e+03 
       3.009755437499e-02       2.232043891874e+03 
       3.023971805862e-02       2.221793746561e+03 
       3.038224836657e-02       2.211547290451e+03 
       3.052515449240e-02       2.201305315819e+03 
       3.066844590445e-02       2.191068595289e+03 
       3.081213235591e-02       2.180837882363e+03 
       3.095622389551e-02       2.170613911102e+03 
       3.110073087855e-02       2.160397395986e+03 
       3.124566397859e-02       2.150189032407e+03 
       3.139103419958e-02       2.139989496080e+03 
       3.153685288861e-02       2.129799443598e+03 
       3.168313174932e-02       2.119619511856e+03 
       3.182988285592e-02       2.109450318562e+03 
       3.197711866786e-02       2.099292462102e+03 
       3.212485204533e-02       2.089146521390e+03 
       3.227309626548e-02       2.079013056069e+03 
       3.242186503945e-02       2.068892606372e+03 
       3.257117253029e-02       2.058785693535e+03 
       3.272103337184e-02       2.048692819181e+03 
       3.287146268856e-02       2.038614465882e+03 
       3.302247611639e-02       2.028551096996e+03 
       3.317408982479e-02       2.018503156362e+03 
       3.332632053993e-02       2.008471068856e+03 
       3.347918556912e-02       1.998455239713e+03 
       3.363270282664e-02       1.988456055089e+03 
       3.378689086102e-02       1.978473881389e+03 
       3.394176888377e-02       1.968509065714e+03 
       3.409735679983e-02       1.958561935421e+03 
       3.425367523980e-02       1.948632798209e+03 
       3.441074559392e-02       1.938721941934e+03 
       3.456859004822e-02       1.928829634296e+03 
       3.472723162271e-02       1.918956123201e+03 
       3.488669421191e-02       1.909101635979e+03 
       3.504700262792e-02       1.899266379791e+03 
       3.520818264601e-02       1.889450541218e+03 
       3.537026105324e-02       1.879654285949e+03 
       3.553326570005e-02       1.869877758892e+03 
       3.569722555516e-02       1.860121083906e+03 
       3.586217076412e-02       1.850384363622e+03 
       3.602813271163e-02       1.840667679140e+03 
       3.619514408805e-02       1.830971089890e+03 
       3.636323896042e-02       1.821294633255e+03 
       3.653245284831e-02       1.811638324755e+03 
       3.670282280495e-02       1.802002157117e+03 
       3.687438750406e-02       1.792386100403e+03 
       3.704718733283e-02       1.782790101508e+03 
       3.722126449173e-02       1.773214083976e+03 
       3.739666310147e-02       1.763657947305e+03 
       3.757342931804e-02       1.754121566475e+03 
       3.775161145639e-02       1.744604791758e+03 
       3.793126012352e-02       1.735107447836e+03 
       3.811242836196e-02       1.725629333344e+03 
       3.829517180451e-02       1.716170220101e+03 
       3.847954884141e-02       1.706729852140e+03 
       3.866562080103e-02       1.697307945495e+03 
       3.885345214552e-02       1.687904186584e+03 
       3.904311068279e-02       1.678518231819e+03 
       3.923466779659e-02       1.669149706338e+03 
       3.942819869655e-02       1.659798202765e+03 
       3.962378269007e-02       1.650463280092e+03 
       3.982150347871e-02       1.641144462732e+03 
       4.002144948143e-02       1.631841238774e+03 
       4.022371418782e-02       1.622553058347e+03 
       4.042839654459e-02       1.613279332507e+03 
       4.063560137912e-02       1.604019431211e+03 
       4.084543986440e-02       1.594772681403e+03 
       4.105803003021e-02       1.585538364802e+03 
       4.127349732610e-02       1.576315715833e+03 
       4.149197524251e-02       1.567103918877e+03 
       4.171360599733e-02       1.557902105080e+03 
       4.193854129615e-02       1.548709349783e+03 
       4.216694317588e-02       1.539524668225e+03 
       4.239898494255e-02       1.530347011915e+03 
       4.263485221634e-02       1.521175263961e+03 
       4.287474409827e-02       1.512008233814e+03 
       4.311887447597e-02       1.502844652152e+03 
       4.336747348830e-02       1.493683163720e+03 
       4.362078917236e-02       1.484522320552e+03 
       4.387908932009e-02       1.475360573901e+03 
       4.414266357685e-02       1.466196264675e+03 
       4.441182581983e-02       1.457027612993e+03 
       4.468691686140e-02       1.447852706056e+03 
       4.496830753089e-02       1.438669484243e+03 
       4.525640219850e-02       1.429475724458e+03 
       4.555164281793e-02       1.420269021766e+03 
       4.585451357928e-02       1.411046766296e+03 
       4.616554628322e-02       1.401806116952e+03 
       4.648532657065e-02       1.392543970049e+03 
       4.681450117107e-02       1.383256920273e+03 
       4.715378636941e-02       1.373941215490e+03 
       4.750397793617e-02       1.364592700391e+03 
       4.786596282292e-02       1.355206747592e+03 
       4.824073299690e-02       1.345778173613e+03 
       4.862940187943e-02       1.336301132852e+03 
       4.903322396843e-02       1.326768985576e+03 
       4.945361837200e-02       1.317174128737e+03 
       4.989219716757e-02       1.307507780022e+03 
       5.035079973958e-02       1.297759696025e+03 
       5.083153455234e-02       1.287917804206e+03 
       5.133683019891e-02       1.277967714487e+03 
       5.186949804786e-02       1.267892066973e+03 
       5.243280940103e-02       1.257669647955e+03 
       5.303059077830e-02       1.247274180016e+03 
       5.366734173143e-02       1.236672647253e+03 
       5.434838035813e-02       1.225822953854e+03 
       5.508002219728e-02       1.214670617370e+03 
       5.586979789468e-02       1.203144059033e+03 
       5.672671282758e-02       1.191147865329e+03 
       5.766154559817e-02       1.178553135730e+03 
