# Matter power spectrum P(k) at redshift z=0
# for k=1.00694e-05 to 1.4771 h/Mpc,
# number of wavenumbers equal to 608
#    1:k (h/Mpc)              2:P (Mpc/h)^3        
       1.006944188083e-05       4.608341441584e+01 
       2.281330340261e-05       1.016501004016e+02 
       3.560033042391e-05       1.563308599863e+02 
       4.846419544640e-05       2.106772928714e+02 
       6.143911015176e-05       2.650057532010e+02 
       7.456012402237e-05       3.195555519576e+02 
       8.786343223785e-05       3.745328842998e+02 
       1.013866968657e-04       4.301287719104e+02 
       1.151693853946e-04       4.865282618636e+02 
       1.292531306935e-04       5.439160113335e+02 
       1.436821164866e-04       6.024801819377e+02 
       1.585034923939e-04       6.624154856205e+02 
       1.737678224328e-04       7.239257943035e+02 
       1.895295705668e-04       7.872265326862e+02 
       2.058476263216e-04       8.525469774771e+02 
       2.227858725589e-04       9.201325329979e+02 
       2.404137960621e-04       9.902470192205e+02 
       2.588071394422e-04       1.063174982513e+03 
       2.780485897950e-04       1.139224016840e+03 
       2.982284952249e-04       1.218727055668e+03 
       3.194455944807e-04       1.302044551219e+03 
       3.418077371401e-04       1.389566379406e+03 
       3.654325617000e-04       1.479812913824e+03 
       3.904480862997e-04       1.576965801090e+03 
       4.169931515816e-04       1.679688703910e+03 
       4.452176377237e-04       1.788487530540e+03 
       4.752823589692e-04       1.903860748529e+03 
       5.073585210403e-04       2.026509946047e+03 
       5.416266129538e-04       2.156983949038e+03 
       5.782745998454e-04       2.295282902135e+03 
       6.174952937828e-04       2.443569188155e+03 
       6.594828124041e-04       2.600428676639e+03 
       7.044280970537e-04       2.767520836521e+03 
       7.525135561829e-04       2.945389033790e+03 
       8.039070229653e-04       3.134415771407e+03 
       8.587553555412e-04       3.334979565636e+03 
       9.171781404617e-04       3.546556315588e+03 
       9.792620528403e-04       3.769458707908e+03 
       1.045056447636e-03       4.003871652109e+03 
       1.114570682915e-03       4.249201752109e+03 
       1.187773506754e-03       4.505111248374e+03 
       1.264594600150e-03       4.771156333649e+03 
       1.344928106627e-03       5.046018048427e+03 
       1.428637750613e-03       5.329316031274e+03 
       1.477104874446e-03       5.491805634646e+03 
       1.515562996897e-03       5.619979631641e+03 
       1.605525654334e-03       5.917022655285e+03 
       1.698336372904e-03       6.219554429769e+03 
       1.793800597501e-03       6.526503920302e+03 
       1.891723688618e-03       6.836965342977e+03 
       1.991915066345e-03       7.149975884241e+03 
       2.094191356953e-03       7.464743431423e+03 
       2.198378609750e-03       7.780546312887e+03 
       2.304313705143e-03       8.096584749550e+03 
       2.411845098250e-03       8.412197966066e+03 
       2.520833044068e-03       8.726917407399e+03 
       2.631149438130e-03       9.040246312929e+03 
       2.742677387469e-03       9.351530090057e+03 
       2.855310605293e-03       9.660487992052e+03 
       2.968952702112e-03       9.966822439240e+03 
       3.083516427747e-03       1.027019247817e+04 
       3.198922903363e-03       1.057030662114e+04 
       3.315100870494e-03       1.086697766816e+04 
       3.431985974595e-03       1.115999903960e+04 
       3.549520093670e-03       1.144921142221e+04 
       3.667650717454e-03       1.173446729215e+04 
       3.786330379045e-03       1.201563226727e+04 
       3.905516138495e-03       1.229267328203e+04 
       4.025169116303e-03       1.256544811060e+04 
       4.145254073811e-03       1.283394279243e+04 
       4.265739037024e-03       1.309807474658e+04 
       4.386594960146e-03       1.335782472851e+04 
       4.507795425150e-03       1.361317842843e+04 
       4.629316373812e-03       1.386410262257e+04 
       4.751135868876e-03       1.411060876331e+04 
       4.873233881214e-03       1.435267942231e+04 
       4.995592100175e-03       1.459034787021e+04 
       5.118193764534e-03       1.482362325023e+04 
       5.241023511740e-03       1.505252280361e+04 
       5.364067243396e-03       1.527700479088e+04 
       5.487312005130e-03       1.549710308375e+04 
       5.610745879218e-03       1.571285121255e+04 
       5.734357888527e-03       1.592433773748e+04 
       5.858137910484e-03       1.613166749111e+04 
       5.982076599939e-03       1.633482074047e+04 
       6.106165319936e-03       1.653451599615e+04 
       6.230396079500e-03       1.672952041879e+04 
       6.354761477667e-03       1.692042060982e+04 
       6.479254653066e-03       1.710725790742e+04 
       6.603869238451e-03       1.729007376048e+04 
       6.728599319655e-03       1.746891037875e+04 
       6.853439398466e-03       1.764381056994e+04 
       6.978384359048e-03       1.781482032348e+04 
       7.103429437491e-03       1.798198691698e+04 
       7.228570194203e-03       1.814534759789e+04 
       7.353802488823e-03       1.830494647085e+04 
       7.479122457408e-03       1.846082770866e+04 
       7.604526491672e-03       1.861303546091e+04 
       7.730011220054e-03       1.876161383230e+04 
       7.855573490454e-03       1.890660564367e+04 
       7.981210354456e-03       1.904805688393e+04 
       8.106919052909e-03       1.918601013892e+04 
       8.232697002723e-03       1.932050867459e+04 
       8.358541784778e-03       1.945159539445e+04 
       8.484451132829e-03       1.957931279543e+04 
       8.610422923328e-03       1.970370290699e+04 
       8.736455166060e-03       1.982480727731e+04 
       8.862545995547e-03       1.994266693201e+04 
       8.988693663120e-03       2.005732238137e+04 
       9.114896529627e-03       2.016334038111e+04 
       9.241153058701e-03       2.027178393200e+04 
       9.367461810556e-03       2.037748416195e+04 
       9.493821436245e-03       2.047978158252e+04 
       9.620230672371e-03       2.058268685284e+04 
       9.746688336180e-03       2.067900591398e+04 
       9.873193321026e-03       2.077239273579e+04 
       9.999744592174e-03       2.086288331735e+04 
       1.012634118291e-02       2.095051458001e+04 
       1.025298219092e-02       2.102744600227e+04 
       1.037966677496e-02       2.110955855849e+04 
       1.050639415174e-02       2.118887671848e+04 
       1.063316359305e-02       2.126552801530e+04 
       1.075997442306e-02       2.133915246356e+04 
       1.088682601584e-02       2.141048268865e+04 
       1.101371779306e-02       2.147703557524e+04 
       1.114064922182e-02       2.154754785308e+04 
       1.126761981265e-02       2.161112839095e+04 
       1.139462911765e-02       2.167221058947e+04 
       1.152167672876e-02       2.173081182615e+04 
       1.164876227614e-02       2.178696415379e+04 
       1.177588542668e-02       2.184069962689e+04 
       1.190304588261e-02       2.188527962838e+04 
       1.203024338018e-02       2.193433742436e+04 
       1.215747768846e-02       2.198085443784e+04 
       1.228474860825e-02       2.202534075493e+04 
       1.241205597097e-02       2.206756578445e+04 
       1.253939963777e-02       2.210721605319e+04 
       1.266677949856e-02       2.214303617783e+04 
       1.279419547124e-02       2.217869581180e+04 
       1.292164750089e-02       2.221226503190e+04 
       1.304913555903e-02       2.224366314628e+04 
       1.317665964305e-02       2.227217731923e+04 
       1.330421977549e-02       2.229943843350e+04 
       1.343181600357e-02       2.232466695545e+04 
       1.355944839861e-02       2.234789089694e+04 
       1.368711705562e-02       2.236959435220e+04 
       1.381482209280e-02       2.238551188081e+04 
       1.394256365120e-02       2.240293609831e+04 
       1.407034189434e-02       2.242023649965e+04 
       1.419815700790e-02       2.243380478256e+04 
       1.432600919942e-02       2.244544381761e+04 
       1.445389869805e-02       2.245538625430e+04 
       1.458182575433e-02       2.246005822427e+04 
       1.470979063998e-02       2.246651432080e+04 
       1.477104874446e-02       2.246898592844e+04 
       1.483779364774e-02       2.247122728436e+04 
       1.496583509122e-02       2.247422194313e+04 
       1.509391530480e-02       2.247553560195e+04 
       1.522203464351e-02       2.247516914735e+04 
       1.535019348297e-02       2.247315671942e+04 
       1.547839221935e-02       2.246952229165e+04 
       1.560663126937e-02       2.246428945076e+04 
       1.573491107021e-02       2.245386862701e+04 
       1.586323207965e-02       2.244554443685e+04 
       1.599159477600e-02       2.243569165757e+04 
       1.611999965822e-02       2.242433322111e+04 
       1.624844724596e-02       2.241149176498e+04 
       1.637693807971e-02       2.239718963954e+04 
       1.650547272083e-02       2.238144903101e+04 
       1.663405175176e-02       2.236429197197e+04 
       1.676267577612e-02       2.234574034570e+04 
       1.689134541891e-02       2.232581586849e+04 
       1.702006132665e-02       2.230454012573e+04 
       1.714882416765e-02       2.228193450926e+04 
       1.727763463214e-02       2.225411431343e+04 
       1.740649343259e-02       2.222895348377e+04 
       1.753540130390e-02       2.220240057896e+04 
       1.766435900369e-02       2.217475037504e+04 
       1.779336731261e-02       2.214642650722e+04 
       1.792242703458e-02       2.211634095169e+04 
       1.805153899718e-02       2.208506934441e+04 
       1.818070405191e-02       2.205263163121e+04 
       1.830992307462e-02       2.201904758753e+04 
       1.843919696580e-02       2.198433684822e+04 
       1.856852665102e-02       2.194505833307e+04 
       1.869791308131e-02       2.190818800938e+04 
       1.882735723357e-02       2.187011665089e+04 
       1.895686011105e-02       2.183019447798e+04 
       1.908642274372e-02       2.179015225511e+04 
       1.921604618883e-02       2.175100714563e+04 
       1.934573153136e-02       2.170898149532e+04 
       1.947547988451e-02       2.166597873316e+04 
       1.960529239025e-02       2.161898499331e+04 
       1.973517021988e-02       2.157389182157e+04 
       1.986511457456e-02       2.152810186253e+04 
       1.999512668591e-02       2.148126752739e+04 
       2.012520781662e-02       2.143280724291e+04 
       2.025535926107e-02       2.138438768593e+04 
       2.038558234598e-02       2.133474331032e+04 
       2.051587843106e-02       2.128465464550e+04 
       2.064624890974e-02       2.123373011511e+04 
       2.077669520982e-02       2.118221745089e+04 
       2.090721879428e-02       2.112811221762e+04 
       2.103782116197e-02       2.107569558488e+04 
       2.116850384844e-02       2.102163946469e+04 
       2.129926842672e-02       2.096681211928e+04 
       2.143011650817e-02       2.090964287842e+04 
       2.156104974335e-02       2.085347576545e+04 
       2.169206982287e-02       2.079585013347e+04 
       2.182317847833e-02       2.073830844779e+04 
       2.195437748328e-02       2.068010099354e+04 
       2.208566865417e-02       2.062125286572e+04 
       2.221705385134e-02       2.056177224538e+04 
       2.234853498010e-02       2.050167727706e+04 
       2.248011399175e-02       2.044098304892e+04 
       2.261179288473e-02       2.037970423590e+04 
       2.274357370570e-02       2.031785535076e+04 
       2.287545855077e-02       2.025333301902e+04 
       2.300744956665e-02       2.019033537848e+04 
       2.313954895196e-02       2.012689571944e+04 
       2.327175895846e-02       2.006284396240e+04 
       2.340408189240e-02       1.999778993509e+04 
       2.353652011588e-02       1.993262736440e+04 
       2.366907604829e-02       1.986722692832e+04 
       2.380175216773e-02       1.980136471375e+04 
       2.393455101254e-02       1.973520403110e+04 
       2.406747518283e-02       1.966798730534e+04 
       2.420052734211e-02       1.960080709615e+04 
       2.433371021891e-02       1.953212234170e+04 
       2.446702660853e-02       1.946417130640e+04 
       2.460047937477e-02       1.939583546805e+04 
       2.473407145176e-02       1.932712703084e+04 
       2.486780584585e-02       1.925865094736e+04 
       2.500168563756e-02       1.918806008482e+04 
       2.513571398357e-02       1.911831394538e+04 
       2.526989411882e-02       1.904824245687e+04 
       2.540422935863e-02       1.897785135502e+04 
       2.553872310094e-02       1.890716345206e+04 
       2.567337882861e-02       1.883618411097e+04 
       2.580820011177e-02       1.876333008919e+04 
       2.594319061032e-02       1.869181662980e+04 
       2.607835407641e-02       1.861998289224e+04 
       2.621369435713e-02       1.854753201804e+04 
       2.634921539719e-02       1.847509678263e+04 
       2.648492124176e-02       1.840360693219e+04 
       2.662081603939e-02       1.832946386530e+04 
       2.675690404503e-02       1.825651215959e+04 
       2.689318962317e-02       1.818304158928e+04 
       2.702967725106e-02       1.810964487013e+04 
       2.716637152212e-02       1.803619841033e+04 
       2.730327714938e-02       1.796240247901e+04 
       2.744039896915e-02       1.788862927532e+04 
       2.757774194475e-02       1.781481251647e+04 
       2.771531117038e-02       1.773996537952e+04 
       2.785311187521e-02       1.766617097699e+04 
       2.799114942755e-02       1.759181548260e+04 
       2.812942933922e-02       1.751653770578e+04 
       2.826795727008e-02       1.744199937720e+04 
       2.840673903271e-02       1.736736003448e+04 
       2.854578059734e-02       1.729262767296e+04 
       2.868508809690e-02       1.721781015819e+04 
       2.882466783232e-02       1.714189424655e+04 
       2.896452627804e-02       1.706694270573e+04 
       2.910467008771e-02       1.699192762912e+04 
       2.924510610019e-02       1.691718061659e+04 
       2.938584134570e-02       1.684205955757e+04 
       2.952688305232e-02       1.676581129486e+04 
       2.966823865271e-02       1.669057774818e+04 
       2.980991579114e-02       1.661505189374e+04 
       2.995192233079e-02       1.654045021018e+04 
       3.009426636140e-02       1.646516191927e+04 
       3.023695620722e-02       1.638890851288e+04 
       3.038000043534e-02       1.631362655545e+04 
       3.052340786436e-02       1.623803556866e+04 
       3.066718757347e-02       1.616281079650e+04 
       3.081134891190e-02       1.608747601165e+04 
       3.095590150885e-02       1.601235846582e+04 
       3.110085528386e-02       1.593664983848e+04 
       3.124622045760e-02       1.586132554247e+04 
       3.139200756329e-02       1.578623033634e+04 
       3.153822745851e-02       1.571117538300e+04 
       3.168489133767e-02       1.563616544029e+04 
       3.183201074508e-02       1.556120511770e+04 
       3.197959758856e-02       1.548629887489e+04 
       3.212766415385e-02       1.541061249341e+04 
       3.227622311963e-02       1.533579891508e+04 
       3.242528757330e-02       1.526081560855e+04 
       3.257487102764e-02       1.518618542072e+04 
       3.272498743819e-02       1.511168852819e+04 
       3.287565122164e-02       1.503702696313e+04 
       3.302687727509e-02       1.496218300865e+04 
       3.317868099640e-02       1.488787997915e+04 
       3.333107830552e-02       1.481391176645e+04 
       3.348408566708e-02       1.473921634996e+04 
       3.363772011411e-02       1.466519164008e+04 
       3.379199927308e-02       1.459126431517e+04 
       3.394694139040e-02       1.451743256498e+04 
       3.410256536028e-02       1.444370054021e+04 
       3.425889075428e-02       1.436938830613e+04 
       3.441593785245e-02       1.429565347953e+04 
       3.457372767639e-02       1.422240113582e+04 
       3.473228202413e-02       1.414908513332e+04 
       3.489162350716e-02       1.407587937679e+04 
       3.505177558962e-02       1.400215561932e+04 
       3.521276262991e-02       1.392915488622e+04 
       3.537460992482e-02       1.385606183675e+04 
       3.553734375646e-02       1.378332466855e+04 
       3.570099144203e-02       1.371061151409e+04 
       3.586558138688e-02       1.363810012400e+04 
       3.603114314090e-02       1.356538645231e+04 
       3.619770745864e-02       1.349311579527e+04 
       3.636530636338e-02       1.342072084046e+04 
       3.653397321550e-02       1.334868414677e+04 
       3.670374278547e-02       1.327676255285e+04 
       3.687465133187e-02       1.320495596047e+04 
       3.704673668484e-02       1.313326394449e+04 
       3.722003833543e-02       1.306114805932e+04 
       3.739459753134e-02       1.298985764566e+04 
       3.757045737956e-02       1.291850837322e+04 
       3.774766295666e-02       1.284676916310e+04 
       3.792626142721e-02       1.277547426439e+04 
       3.810630217122e-02       1.270439530297e+04 
       3.828783692139e-02       1.263351371582e+04 
       3.847091991099e-02       1.256256326836e+04 
       3.865560803350e-02       1.249154916807e+04 
       3.884196101508e-02       1.242092996362e+04 
       3.903004160108e-02       1.235015988730e+04 
       3.921991575802e-02       1.227973318385e+04 
       3.941165289259e-02       1.220939187954e+04 
       3.960532608941e-02       1.213905796598e+04 
       3.980101236939e-02       1.206856973255e+04 
       3.999879297104e-02       1.199845556793e+04 
       4.019875365701e-02       1.192840022350e+04 
       4.040098504868e-02       1.185811434692e+04 
       4.060558299190e-02       1.178816715716e+04 
       4.081264895741e-02       1.171789728507e+04 
       4.102229047978e-02       1.164787541799e+04 
       4.123462163955e-02       1.157795171839e+04 
       4.144976359356e-02       1.150816450485e+04 
       4.166784515934e-02       1.143839377560e+04 
       4.188900346016e-02       1.136819689776e+04 
       4.211338463851e-02       1.129842258566e+04 
       4.234114464659e-02       1.122839044668e+04 
       4.257245012392e-02       1.115868050993e+04 
       4.280747937376e-02       1.108860903586e+04 
       4.304642345160e-02       1.101872131995e+04 
       4.328948738141e-02       1.094857441758e+04 
       4.353689151769e-02       1.087828390293e+04 
       4.378887307445e-02       1.080806722796e+04 
       4.404568784569e-02       1.073774489424e+04 
       4.430761214657e-02       1.066727420937e+04 
       4.457494500914e-02       1.059686593008e+04 
       4.484801067315e-02       1.052587676451e+04 
       4.512716141951e-02       1.045489754456e+04 
       4.541278080340e-02       1.038379431439e+04 
       4.570528735472e-02       1.031247358546e+04 
       4.600513882746e-02       1.024073564969e+04 
       4.631283709557e-02       1.016881975580e+04 
       4.662893381389e-02       1.009649156169e+04 
       4.695403698745e-02       1.002398741362e+04 
       4.728881862390e-02       9.950970829669e+03 
       4.763402368316e-02       9.877358377698e+03 
       4.799048058688e-02       9.803355685245e+03 
       4.835911361222e-02       9.728903208342e+03 
       4.874095757209e-02       9.653763372226e+03 
       4.913717528231e-02       9.577803958648e+03 
       4.954907844140e-02       9.501213430047e+03 
       4.997815270792e-02       9.423767583407e+03 
       5.042608796337e-02       9.345374606953e+03 
       5.089481500733e-02       9.265898182282e+03 
       5.138655026031e-02       9.185205376432e+03 
       5.190385046468e-02       9.103038544914e+03 
       5.244967989109e-02       9.019349273031e+03 
       5.302749318865e-02       8.933891928213e+03 
       5.364133775592e-02       8.846207640942e+03 
       5.429598031207e-02       8.756191515127e+03 
       5.499706308013e-02       8.663165120725e+03 
       5.575129534150e-02       8.566670742358e+03 
       5.656668540240e-02       8.466024675297e+03 
       5.745281485426e-02       8.360320957471e+03 
       5.842114876705e-02       8.248268314098e+03 
