# Matter power spectrum P(k) at redshift z=3
# for k=9.67645e-06 to 1.4771 h/Mpc,
# number of wavenumbers equal to 604
#    1:k (h/Mpc)              2:P (Mpc/h)^3        
       9.676454560645e-06       6.762687449036e+00 
       2.218173623104e-05       1.508735470043e+01 
       3.472729243406e-05       2.327634542862e+01 
       4.734493038069e-05       3.141264623690e+01 
       6.006694357356e-05       3.954318956235e+01 
       7.292638326610e-05       4.770316572857e+01 
       8.595733800000e-05       5.592270150236e+01 
       9.919522474552e-05       6.422956738988e+01 
       1.126770951969e-04       7.265055410048e+01 
       1.264419608058e-04       8.121229971388e+01 
       1.405311401510e-04       8.994185965537e+01 
       1.549886322140e-04       9.886714694776e+01 
       1.698615190249e-04       1.080173050010e+02 
       1.852004009025e-04       1.174230460261e+02 
       2.010598670844e-04       1.271169736959e+02 
       2.174990038199e-04       1.371339007281e+02 
       2.345819408849e-04       1.475111671224e+02 
       2.523784358038e-04       1.582889611759e+02 
       2.709644926590e-04       1.695106422525e+02 
       2.904230089919e-04       1.812230610504e+02 
       3.108444396896e-04       1.934768694495e+02 
       3.323274606017e-04       2.063268076341e+02 
       3.549796066480e-04       2.198319508771e+02 
       3.789178490962e-04       2.340558919969e+02 
       4.042690643838e-04       2.490668280588e+02 
       4.311703324677e-04       2.649375115843e+02 
       4.597689867936e-04       2.817450178763e+02 
       4.902223218558e-04       2.995702720549e+02 
       5.226968502240e-04       3.184972736251e+02 
       5.573669922826e-04       3.386119551921e+02 
       5.944130835119e-04       3.600006183102e+02 
       6.340186016992e-04       3.827479068570e+02 
       6.763665559494e-04       4.069343099484e+02 
       7.216350452907e-04       4.326332340940e+02 
       7.699920877350e-04       4.599077468818e+02 
       8.215899350343e-04       4.888071663377e+02 
       8.765592096349e-04       5.193637400283e+02 
       9.350033055246e-04       5.515897100523e+02 
       9.969935558372e-04       5.854750766307e+02 
       1.062565661704e-03       6.209863401969e+02 
       1.131717785293e-03       6.580664157621e+02 
       1.204410541387e-03       6.966357842270e+02 
       1.280568904168e-03       7.365947972630e+02 
       1.360085822317e-03       7.778269169283e+02 
       1.442827151882e-03       8.202025771783e+02 
       1.477104874446e-03       8.376004715291e+02 
       1.528637406546e-03       8.635833185731e+02 
       1.617345801657e-03       9.078258695731e+02 
       1.708772122407e-03       9.527859128511e+02 
       1.802732053036e-03       9.983213603826e+02 
       1.899041732671e-03       1.044294879306e+03 
       1.997521427975e-03       1.090574506178e+03 
       2.097998315419e-03       1.137040453439e+03 
       2.200308438981e-03       1.183580515336e+03 
       2.304297952352e-03       1.230092446319e+03 
       2.409823773281e-03       1.276484055792e+03 
       2.516753778254e-03       1.322672982148e+03 
       2.624966654882e-03       1.368586225878e+03 
       2.734351512799e-03       1.414159520810e+03 
       2.844807335360e-03       1.459336616983e+03 
       2.956242336545e-03       1.504068537475e+03 
       3.068573271583e-03       1.548312855829e+03 
       3.181724736482e-03       1.592033022834e+03 
       3.295628480937e-03       1.635197754748e+03 
       3.410222750746e-03       1.677780482249e+03 
       3.525451669660e-03       1.719758852164e+03 
       3.641264665975e-03       1.761114272340e+03 
       3.757615945969e-03       1.801831492202e+03 
       3.874464014040e-03       1.841898215610e+03 
       3.991771237967e-03       1.881304746137e+03 
       4.109503456786e-03       1.920043666592e+03 
       4.227629628306e-03       1.958109554092e+03 
       4.346121513016e-03       1.995498729990e+03 
       4.464953391153e-03       2.032209041457e+03 
       4.584101809745e-03       2.068239669928e+03 
       4.703545356632e-03       2.103590961308e+03 
       4.823264458654e-03       2.138264273941e+03 
       4.943241201442e-03       2.172261842199e+03 
       5.063459168477e-03       2.205586177730e+03 
       5.183903297279e-03       2.238241395890e+03 
       5.304559750862e-03       2.270231698487e+03 
       5.425415802729e-03       2.301561768760e+03 
       5.546459733915e-03       2.332236713736e+03 
       5.667680740724e-03       2.362262013584e+03 
       5.789068851976e-03       2.391643473918e+03 
       5.910614854703e-03       2.420387185418e+03 
       6.032310227364e-03       2.448499483105e+03 
       6.154147079748e-03       2.475986899240e+03 
       6.276118098837e-03       2.502856130625e+03 
       6.398216499986e-03       2.529114004831e+03 
       6.520435982833e-03       2.554767450348e+03 
       6.642770691456e-03       2.579823475704e+03 
       6.765215178302e-03       2.604289152667e+03 
       6.887764371516e-03       2.628171602301e+03 
       7.010413545298e-03       2.651477985584e+03 
       7.133158292984e-03       2.674215492096e+03 
       7.255994502575e-03       2.696391328367e+03 
       7.378918334461e-03       2.718012706305e+03 
       7.501926201125e-03       2.739086827824e+03 
       7.625014748626e-03       2.759620870915e+03 
       7.748180839699e-03       2.779621976005e+03 
       7.871421538294e-03       2.799097236860e+03 
       7.994734095442e-03       2.818053855910e+03 
       8.118115936294e-03       2.836499447146e+03 
       8.241564648254e-03       2.854439938944e+03 
       8.365077970072e-03       2.871882071637e+03 
       8.488653781839e-03       2.888832501466e+03 
       8.612290095775e-03       2.905297786173e+03 
       8.735985047763e-03       2.921284382852e+03 
       8.859736889544e-03       2.936798650708e+03 
       8.983543981522e-03       2.951846859304e+03 
       9.107404786135e-03       2.966435195203e+03 
       9.231317861722e-03       2.980569771232e+03 
       9.355281856865e-03       2.994256634969e+03 
       9.479295505152e-03       3.007501775175e+03 
       9.603357620339e-03       3.020311128216e+03 
       9.727467091861e-03       3.032690580183e+03 
       9.851622880675e-03       3.044645968673e+03 
       9.975824015417e-03       3.056183079939e+03 
       1.010006958882e-02       3.067307645729e+03 
       1.022435875440e-02       3.078025337371e+03 
       1.034869072338e-02       3.088341759735e+03 
       1.047306476183e-02       3.098262445635e+03 
       1.059748018800e-02       3.107792851059e+03 
       1.072193636988e-02       3.116938352456e+03 
       1.084643272284e-02       3.125704246626e+03 
       1.097096870757e-02       3.134095752610e+03 
       1.109554382802e-02       3.142118016385e+03 
       1.122015762959e-02       3.149776116384e+03 
       1.134480969740e-02       3.157075070441e+03 
       1.146949965469e-02       3.164019842270e+03 
       1.159422716130e-02       3.170615347029e+03 
       1.171899191231e-02       3.176866457606e+03 
       1.184379363675e-02       3.182778008594e+03 
       1.196863209637e-02       3.188354798557e+03 
       1.209350708454e-02       3.193601587101e+03 
       1.221841842520e-02       3.198523063609e+03 
       1.234336597191e-02       3.203123773840e+03 
       1.246834960694e-02       3.207408062395e+03 
       1.259336924043e-02       3.211380153454e+03 
       1.271842480964e-02       3.215044309063e+03 
       1.284351627822e-02       3.218404869491e+03 
       1.296864363554e-02       3.221466187692e+03 
       1.309380689613e-02       3.224232573945e+03 
       1.321900609903e-02       3.226708279020e+03 
       1.334424130738e-02       3.228897495904e+03 
       1.346951260784e-02       3.230804365466e+03 
       1.359482011025e-02       3.232432986727e+03 
       1.372016394717e-02       3.233787332833e+03 
       1.384554427356e-02       3.234871540627e+03 
       1.397096126643e-02       3.235689475648e+03 
       1.409641512457e-02       3.236245064407e+03 
       1.422190606826e-02       3.236542182249e+03 
       1.434743433911e-02       3.236584662671e+03 
       1.447300019976e-02       3.236376299363e+03 
       1.459860393380e-02       3.235920847548e+03 
       1.472424584556e-02       3.235222025116e+03 
       1.477104874446e-02       3.234900308479e+03 
       1.484992626002e-02       3.234283513597e+03 
       1.497564552271e-02       3.233108958899e+03 
       1.510140399963e-02       3.231701971870e+03 
       1.522720207720e-02       3.230066128753e+03 
       1.535304016223e-02       3.228204971397e+03 
       1.547891868192e-02       3.226122007431e+03 
       1.560483808387e-02       3.223820710200e+03 
       1.573079883612e-02       3.221304518809e+03 
       1.585680142718e-02       3.218576838114e+03 
       1.598284636613e-02       3.215641038696e+03 
       1.610893418269e-02       3.212500457156e+03 
       1.623506542735e-02       3.209158396437e+03 
       1.636124067147e-02       3.205618126348e+03 
       1.648746050745e-02       3.201882884608e+03 
       1.661372554887e-02       3.197955877329e+03 
       1.674003643070e-02       3.193840280705e+03 
       1.686639380944e-02       3.189539242105e+03 
       1.699279836340e-02       3.185055881368e+03 
       1.711925079289e-02       3.180393292340e+03 
       1.724575182047e-02       3.175554543845e+03 
       1.737230219122e-02       3.170542681085e+03 
       1.749890267301e-02       3.165360726298e+03 
       1.762555405680e-02       3.160011679214e+03 
       1.775225715697e-02       3.154498517469e+03 
       1.787901281161e-02       3.148824196197e+03 
       1.800582188289e-02       3.142991647724e+03 
       1.813268525743e-02       3.137003780833e+03 
       1.825960384665e-02       3.130863479640e+03 
       1.838657858718e-02       3.124573602855e+03 
       1.851361044130e-02       3.118136982282e+03 
       1.864070039730e-02       3.111556422174e+03 
       1.876784947001e-02       3.104834698279e+03 
       1.889505870120e-02       3.097974557152e+03 
       1.902232916008e-02       3.090978716082e+03 
       1.914966194383e-02       3.083849862992e+03 
       1.927705817809e-02       3.076590656782e+03 
       1.940451901748e-02       3.069203728322e+03 
       1.953204564622e-02       3.061691680929e+03 
       1.965963927863e-02       3.054057091779e+03 
       1.978730115979e-02       3.046302513131e+03 
       1.991503256613e-02       3.038430473332e+03 
       2.004283480605e-02       3.030443478061e+03 
       2.017070922062e-02       3.022344011375e+03 
       2.029865718423e-02       3.014134536302e+03 
       2.042668010530e-02       3.005817495414e+03 
       2.055477942703e-02       2.997395310964e+03 
       2.068295662809e-02       2.988870385026e+03 
       2.081121322347e-02       2.980245098971e+03 
       2.093955076522e-02       2.971521813167e+03 
       2.106797084331e-02       2.962702866368e+03 
       2.119647508644e-02       2.953790574960e+03 
       2.132506516298e-02       2.944787232344e+03 
       2.145374278180e-02       2.935695108584e+03 
       2.158250969326e-02       2.926516449362e+03 
       2.171136769014e-02       2.917253476178e+03 
       2.184031860867e-02       2.907908385930e+03 
       2.196936432950e-02       2.898483350837e+03 
       2.209850677879e-02       2.888980518597e+03 
       2.222774792930e-02       2.879402012541e+03 
       2.235708980152e-02       2.869749932177e+03 
       2.248653446480e-02       2.860026353321e+03 
       2.261608403855e-02       2.850233328385e+03 
       2.274574069351e-02       2.840372886988e+03 
       2.287550665298e-02       2.830447036196e+03 
       2.300538419416e-02       2.820457760385e+03 
       2.313537564948e-02       2.810407021908e+03 
       2.326548340802e-02       2.800296760655e+03 
       2.339570991694e-02       2.790128894427e+03 
       2.352605768297e-02       2.779905318697e+03 
       2.365652927394e-02       2.769627906196e+03 
       2.378712732039e-02       2.759298507232e+03 
       2.391785451719e-02       2.748918949614e+03 
       2.404871362520e-02       2.738491038296e+03 
       2.417970747310e-02       2.728016555483e+03 
       2.431083895910e-02       2.717497260572e+03 
       2.444211105287e-02       2.706934890815e+03 
       2.457352679744e-02       2.696331161053e+03 
       2.470508931119e-02       2.685687763948e+03 
       2.483680178990e-02       2.675006370644e+03 
       2.496866750892e-02       2.664288630834e+03 
       2.510068982530e-02       2.653536173088e+03 
       2.523287218012e-02       2.642750605188e+03 
       2.536521810082e-02       2.631933514095e+03 
       2.549773120363e-02       2.621086466304e+03 
       2.563041519610e-02       2.610211007229e+03 
       2.576327387971e-02       2.599308661655e+03 
       2.589631115253e-02       2.588380933233e+03 
       2.602953101208e-02       2.577429303854e+03 
       2.616293755817e-02       2.566455233390e+03 
       2.629653499591e-02       2.555460159202e+03 
       2.643032763883e-02       2.544445495563e+03 
       2.656431991208e-02       2.533412633325e+03 
       2.669851635580e-02       2.522362939444e+03 
       2.683292162852e-02       2.511297756856e+03 
       2.696754051081e-02       2.500218404482e+03 
       2.710237790899e-02       2.489126177338e+03 
       2.723743885895e-02       2.478022346540e+03 
       2.737272853021e-02       2.466908160381e+03 
       2.750825223008e-02       2.455784844414e+03 
       2.764401540796e-02       2.444653602122e+03 
       2.778002365982e-02       2.433515616043e+03 
       2.791628273293e-02       2.422372048007e+03 
       2.805279853065e-02       2.411224040091e+03 
       2.818957711751e-02       2.400072714699e+03 
       2.832662472443e-02       2.388919175128e+03 
       2.846394775421e-02       2.377764505808e+03 
       2.860155278721e-02       2.366609771647e+03 
       2.873944658721e-02       2.355456018164e+03 
       2.887763610765e-02       2.344304271223e+03 
       2.901612849799e-02       2.333155535846e+03 
       2.915493111042e-02       2.322010796048e+03 
       2.929405150682e-02       2.310871014209e+03 
       2.943349746604e-02       2.299737130279e+03 
       2.957327699148e-02       2.288610061834e+03 
       2.971339831897e-02       2.277490703123e+03 
       2.985386992509e-02       2.266379925785e+03 
       2.999470053575e-02       2.255278578507e+03 
       3.013589913522e-02       2.244187487404e+03 
       3.027747497553e-02       2.233107456903e+03 
       3.041943758636e-02       2.222039269729e+03 
       3.056179678527e-02       2.210983688384e+03 
       3.070456268854e-02       2.199941454952e+03 
       3.084774572243e-02       2.188913292592e+03 
       3.099135663497e-02       2.177899905569e+03 
       3.113540650838e-02       2.166901979675e+03 
       3.127990677200e-02       2.155920182605e+03 
       3.142486921593e-02       2.144955163821e+03 
       3.157030600525e-02       2.134007554642e+03 
       3.171622969507e-02       2.123077967630e+03 
       3.186265324619e-02       2.112166996118e+03 
       3.200959004168e-02       2.101275214035e+03 
       3.215705390417e-02       2.090403174884e+03 
       3.230505911421e-02       2.079551411669e+03 
       3.245362042940e-02       2.068720435738e+03 
       3.260275310466e-02       2.057910737136e+03 
       3.275247291354e-02       2.047122783908e+03 
       3.290279617061e-02       2.036357021732e+03 
       3.305373975520e-02       2.025613874782e+03 
       3.320532113634e-02       2.014893745024e+03 
       3.335755839909e-02       2.004197012911e+03 
       3.351047027241e-02       1.993524037828e+03 
       3.366407615858e-02       1.982875158159e+03 
       3.381839616427e-02       1.972250692082e+03 
       3.397345113348e-02       1.961650937638e+03 
       3.412926268239e-02       1.951076173242e+03 
       3.428585323625e-02       1.940526657813e+03 
       3.444324606856e-02       1.930002631057e+03 
       3.460146534253e-02       1.919504313297e+03 
       3.476053615522e-02       1.909031905678e+03 
       3.492048458430e-02       1.898585589985e+03 
       3.508133773786e-02       1.888165528242e+03 
       3.524312380736e-02       1.877771862726e+03 
       3.540587212399e-02       1.867404716110e+03 
       3.556961321879e-02       1.857064190446e+03 
       3.573437888661e-02       1.846750367560e+03 
       3.590020225457e-02       1.836463308307e+03 
       3.606711785501e-02       1.826203052566e+03 
       3.623516170355e-02       1.815969618605e+03 
       3.640437138262e-02       1.805763002412e+03 
       3.657478613084e-02       1.795583177237e+03 
       3.674644693889e-02       1.785430092914e+03 
       3.691939665235e-02       1.775303674715e+03 
       3.709368008208e-02       1.765203822892e+03 
       3.726934412297e-02       1.755130411694e+03 
       3.744643788164e-02       1.745083288906e+03 
       3.762501281402e-02       1.735062275503e+03 
       3.780512287368e-02       1.725067164899e+03 
       3.798682467203e-02       1.715097723960e+03 
       3.817017765132e-02       1.705153691970e+03 
       3.835524427194e-02       1.695234781821e+03 
       3.854209021524e-02       1.685340680241e+03 
       3.873078460354e-02       1.675471047585e+03 
       3.892140023905e-02       1.665625518113e+03 
       3.911401386365e-02       1.655803698997e+03 
       3.930870644181e-02       1.646005169855e+03 
       3.950556346898e-02       1.636229481239e+03 
       3.970467530842e-02       1.626476152462e+03 
       3.990613755951e-02       1.616744669821e+03 
       4.011005146107e-02       1.607034483969e+03 
       4.031652433388e-02       1.597345007701e+03 
       4.052567006681e-02       1.587675612899e+03 
       4.073760965183e-02       1.578025628880e+03 
       4.095247177392e-02       1.568394339587e+03 
       4.117039346255e-02       1.558780981230e+03 
       4.139152081253e-02       1.549184740231e+03 
       4.161600978329e-02       1.539604750794e+03 
       4.184402708666e-02       1.530040091940e+03 
       4.207575117519e-02       1.520489784848e+03 
       4.231137334468e-02       1.510952790001e+03 
       4.255109896684e-02       1.501428003245e+03 
       4.279514887065e-02       1.491914252075e+03 
       4.304376089409e-02       1.482410291248e+03 
       4.329719163160e-02       1.472914797379e+03 
       4.355571840698e-02       1.463426362614e+03 
       4.381964150693e-02       1.453943486168e+03 
       4.408928671672e-02       1.444464564785e+03 
       4.436500820717e-02       1.434987879675e+03 
       4.464719183167e-02       1.425511580700e+03 
       4.493625890340e-02       1.416033668374e+03 
       4.523267053674e-02       1.406551972742e+03 
       4.553693265446e-02       1.397064129872e+03 
       4.584960178311e-02       1.387567558519e+03 
       4.617129178570e-02       1.378059433639e+03 
       4.650268171322e-02       1.368536656988e+03 
       4.684452499780e-02       1.358995819880e+03 
       4.719766026100e-02       1.349433150748e+03 
       4.756302407609e-02       1.339844441604e+03 
       4.794166610394e-02       1.330224948762e+03 
       4.833476712630e-02       1.320569268403e+03 
       4.874366063124e-02       1.310871188748e+03 
       4.916985877356e-02       1.301123515008e+03 
       4.961508374629e-02       1.291317847666e+03 
       5.008130587164e-02       1.281444277046e+03 
       5.057079006480e-02       1.271490950840e+03 
       5.108615275867e-02       1.261443484097e+03 
       5.163043191601e-02       1.251284181926e+03 
       5.220717340679e-02       1.240991012063e+03 
       5.282053777843e-02       1.230536162483e+03 
       5.347543223338e-02       1.219883935218e+03 
       5.417767328155e-02       1.208987723943e+03 
       5.493418566658e-02       1.197785808619e+03 
       5.575324195181e-02       1.186195402499e+03 
       5.664474295936e-02       1.174103823136e+03 
