# Matter power spectrum P(k) at redshift z=3
# for k=1.00694e-05 to 1.4771 h/Mpc,
# number of wavenumbers equal to 608
#    1:k (h/Mpc)              2:P (Mpc/h)^3        
       1.006944188083e-05       6.052670045408e+00 
       2.281330340261e-05       1.335092270554e+01 
       3.560033042391e-05       2.053289470500e+01 
       4.846419544640e-05       2.767107767418e+01 
       6.143911015176e-05       3.480706764489e+01 
       7.456012402237e-05       4.197234477773e+01 
       8.786343223785e-05       4.919404404290e+01 
       1.013866968657e-04       5.649731307833e+01 
       1.151693853946e-04       6.390652180038e+01 
       1.292531306935e-04       7.144599750498e+01 
       1.436821164866e-04       7.914053817908e+01 
       1.585034923939e-04       8.701581464674e+01 
       1.737678224328e-04       9.509871574281e+01 
       1.895295705668e-04       1.034176653783e+02 
       2.058476263216e-04       1.120029277341e+02 
       2.227858725589e-04       1.208869097966e+02 
       2.404137960621e-04       1.301044659755e+02 
       2.588071394422e-04       1.396932061546e+02 
       2.780485897950e-04       1.496938054317e+02 
       2.982284952249e-04       1.601503105183e+02 
       3.194455944807e-04       1.711104339406e+02 
       3.418077371401e-04       1.826258225559e+02 
       3.654325617000e-04       1.947522812618e+02 
       3.904480862997e-04       2.075499260354e+02 
       4.169931515816e-04       2.210832326415e+02 
       4.452176377237e-04       2.354209388035e+02 
       4.752823589692e-04       2.506357490366e+02 
       5.073585210403e-04       2.668037839456e+02 
       5.416266129538e-04       2.840037115471e+02 
       5.782745998454e-04       3.023154997997e+02 
       6.174952937828e-04       3.218187403955e+02 
       6.594828124041e-04       3.425905175248e+02 
       7.044280970537e-04       3.647028345829e+02 
       7.525135561829e-04       3.882196672115e+02 
       8.039070229653e-04       4.131937792820e+02 
       8.587553555412e-04       4.396635106311e+02 
       9.171781404617e-04       4.676498071431e+02 
       9.792620528403e-04       4.971537972418e+02 
       1.045056447636e-03       5.281552073886e+02 
       1.114570682915e-03       5.606118439444e+02 
       1.187773506754e-03       5.944602543986e+02 
       1.264594600150e-03       6.296175372712e+02 
       1.344928106627e-03       6.659841274506e+02 
       1.428637750613e-03       7.034472740123e+02 
       1.477104874446e-03       7.249372837275e+02 
       1.515562996897e-03       7.418848727877e+02 
       1.605525654334e-03       7.811693217675e+02 
       1.698336372904e-03       8.211711228482e+02 
       1.793800597501e-03       8.617620368978e+02 
       1.891723688618e-03       9.028176872168e+02 
       1.991915066345e-03       9.442182441813e+02 
       2.094191356953e-03       9.858530549344e+02 
       2.198378609750e-03       1.027620017846e+03 
       2.304313705143e-03       1.069425104829e+03 
       2.411845098250e-03       1.111183267054e+03 
       2.520833044068e-03       1.152818292463e+03 
       2.631149438130e-03       1.194262436967e+03 
       2.742677387469e-03       1.235455896343e+03 
       2.855310605293e-03       1.276346181706e+03 
       2.968952702112e-03       1.316887454148e+03 
       3.083516427747e-03       1.357039863424e+03 
       3.198922903363e-03       1.396768922256e+03 
       3.315100870494e-03       1.436044933870e+03 
       3.431985974595e-03       1.474842478000e+03 
       3.549520093670e-03       1.513139951738e+03 
       3.667650717454e-03       1.550919157076e+03 
       3.786330379045e-03       1.588164926511e+03 
       3.905516138495e-03       1.624864780313e+03 
       4.025169116303e-03       1.661008612350e+03 
       4.145254073811e-03       1.696588404070e+03 
       4.265739037024e-03       1.731597967494e+03 
       4.386594960146e-03       1.766032717628e+03 
       4.507795425150e-03       1.799889473225e+03 
       4.629316373812e-03       1.833166283040e+03 
       4.751135868876e-03       1.865862273610e+03 
       4.873233881214e-03       1.897977514425e+03 
       4.995592100175e-03       1.929512897283e+03 
       5.118193764534e-03       1.960469922205e+03 
       5.241023511740e-03       1.990850620826e+03 
       5.364067243396e-03       2.020658050728e+03 
       5.487312005130e-03       2.049895429492e+03 
       5.610745879218e-03       2.078566376968e+03 
       5.734357888527e-03       2.106674865494e+03 
       5.858137910484e-03       2.134225176989e+03 
       5.982076599939e-03       2.161221870737e+03 
       6.106165319936e-03       2.187669742852e+03 
       6.230396079500e-03       2.213573794862e+03 
       6.354761477667e-03       2.238939204040e+03 
       6.479254653066e-03       2.263771291668e+03 
       6.603869238451e-03       2.288075496056e+03 
       6.728599319655e-03       2.311857350135e+03 
       6.853439398466e-03       2.335122461383e+03 
       6.978384359048e-03       2.357876498498e+03 
       7.103429437491e-03       2.380125180406e+03 
       7.228570194203e-03       2.401874265992e+03 
       7.353802488823e-03       2.423129546725e+03 
       7.479122457408e-03       2.443896836705e+03 
       7.604526491672e-03       2.464181962583e+03 
       7.730011220054e-03       2.483990753543e+03 
       7.855573490454e-03       2.503329028350e+03 
       7.981210354456e-03       2.522202585110e+03 
       8.106919052909e-03       2.540617191610e+03 
       8.232697002723e-03       2.558578570927e+03 
       8.358541784778e-03       2.576093040961e+03 
       8.484451132829e-03       2.593165751741e+03 
       8.610422923328e-03       2.609801982493e+03 
       8.736455166060e-03       2.626007190596e+03 
       8.862545995547e-03       2.641786768294e+03 
       8.988693663120e-03       2.657146032163e+03 
       9.114896529627e-03       2.672090224190e+03 
       9.241153058701e-03       2.686624516879e+03 
       9.367461810556e-03       2.700754018517e+03 
       9.493821436245e-03       2.714483779165e+03 
       9.620230672371e-03       2.727818797741e+03 
       9.746688336180e-03       2.740764026932e+03 
       9.873193321026e-03       2.753324379458e+03 
       9.999744592174e-03       2.765504729796e+03 
       1.012634118291e-02       2.777309917297e+03 
       1.025298219092e-02       2.788744744387e+03 
       1.037966677496e-02       2.799813975303e+03 
       1.050639415174e-02       2.810522331824e+03 
       1.063316359305e-02       2.820874489120e+03 
       1.075997442306e-02       2.830875070445e+03 
       1.088682601584e-02       2.840528643060e+03 
       1.101371779306e-02       2.849839714585e+03 
       1.114064922182e-02       2.858812731566e+03 
       1.126761981265e-02       2.867452079397e+03 
       1.139462911765e-02       2.875762084531e+03 
       1.152167672876e-02       2.883747017841e+03 
       1.164876227614e-02       2.891411099591e+03 
       1.177588542668e-02       2.898758504079e+03 
       1.190304588261e-02       2.905793365464e+03 
       1.203024338018e-02       2.912519781172e+03 
       1.215747768846e-02       2.918941817083e+03 
       1.228474860825e-02       2.925063510210e+03 
       1.241205597097e-02       2.930888870129e+03 
       1.253939963777e-02       2.936421876340e+03 
       1.266677949856e-02       2.941666451126e+03 
       1.279419547124e-02       2.946626401296e+03 
       1.292164750089e-02       2.951305376936e+03 
       1.304913555903e-02       2.955706938788e+03 
       1.317665964305e-02       2.959834680043e+03 
       1.330421977549e-02       2.963692255482e+03 
       1.343181600357e-02       2.967283330716e+03 
       1.355944839861e-02       2.970611541955e+03 
       1.368711705562e-02       2.973680559257e+03 
       1.381482209280e-02       2.976493624265e+03 
       1.394256365120e-02       2.979054571656e+03 
       1.407034189434e-02       2.981366733078e+03 
       1.419815700790e-02       2.983433536349e+03 
       1.432600919942e-02       2.985258372443e+03 
       1.445389869805e-02       2.986844597586e+03 
       1.458182575433e-02       2.988195534472e+03 
       1.470979063998e-02       2.989314473153e+03 
       1.477104874446e-02       2.989768867664e+03 
       1.483779364774e-02       2.990204671851e+03 
       1.496583509122e-02       2.990869357776e+03 
       1.509391530480e-02       2.991311727949e+03 
       1.522203464351e-02       2.991534949917e+03 
       1.535019348297e-02       2.991542162443e+03 
       1.547839221935e-02       2.991336476010e+03 
       1.560663126937e-02       2.990920973387e+03 
       1.573491107021e-02       2.990298709850e+03 
       1.586323207965e-02       2.989472713488e+03 
       1.599159477600e-02       2.988445985026e+03 
       1.611999965822e-02       2.987221498206e+03 
       1.624844724596e-02       2.985802199496e+03 
       1.637693807971e-02       2.984191008111e+03 
       1.650547272083e-02       2.982390816101e+03 
       1.663405175176e-02       2.980404488246e+03 
       1.676267577612e-02       2.978234862498e+03 
       1.689134541891e-02       2.975884750184e+03 
       1.702006132665e-02       2.973356936627e+03 
       1.714882416765e-02       2.970654181816e+03 
       1.727763463214e-02       2.967779221267e+03 
       1.740649343259e-02       2.964734766794e+03 
       1.753540130390e-02       2.961523507901e+03 
       1.766435900369e-02       2.958148112469e+03 
       1.779336731261e-02       2.954611227998e+03 
       1.792242703458e-02       2.950915482213e+03 
       1.805153899718e-02       2.947063484085e+03 
       1.818070405191e-02       2.943057824017e+03 
       1.830992307462e-02       2.938901074256e+03 
       1.843919696580e-02       2.934595788861e+03 
       1.856852665102e-02       2.930144503329e+03 
       1.869791308131e-02       2.925549734216e+03 
       1.882735723357e-02       2.920813978376e+03 
       1.895686011105e-02       2.915939712045e+03 
       1.908642274372e-02       2.910929390272e+03 
       1.921604618883e-02       2.905785445724e+03 
       1.934573153136e-02       2.900510288169e+03 
       1.947547988451e-02       2.895106303825e+03 
       1.960529239025e-02       2.889575854912e+03 
       1.973517021988e-02       2.883921279692e+03 
       1.986511457456e-02       2.878144892361e+03 
       1.999512668591e-02       2.872248983571e+03 
       2.012520781662e-02       2.866235821090e+03 
       2.025535926107e-02       2.860107650348e+03 
       2.038558234598e-02       2.853866695521e+03 
       2.051587843106e-02       2.847515160456e+03 
       2.064624890974e-02       2.841055229433e+03 
       2.077669520982e-02       2.834489068284e+03 
       2.090721879428e-02       2.827818824813e+03 
       2.103782116197e-02       2.821046629458e+03 
       2.116850384844e-02       2.814174595583e+03 
       2.129926842672e-02       2.807204819630e+03 
       2.143011650817e-02       2.800139380905e+03 
       2.156104974335e-02       2.792980341382e+03 
       2.169206982287e-02       2.785729745257e+03 
       2.182317847833e-02       2.778389618533e+03 
       2.195437748328e-02       2.770961968196e+03 
       2.208566865417e-02       2.763448782072e+03 
       2.221705385134e-02       2.755852028016e+03 
       2.234853498010e-02       2.748173653634e+03 
       2.248011399175e-02       2.740415586001e+03 
       2.261179288473e-02       2.732579731445e+03 
       2.274357370570e-02       2.724667975545e+03 
       2.287545855077e-02       2.716682183271e+03 
       2.300744956665e-02       2.708624199035e+03 
       2.313954895196e-02       2.700495846977e+03 
       2.327175895846e-02       2.692298931380e+03 
       2.340408189240e-02       2.684035236710e+03 
       2.353652011588e-02       2.675706528041e+03 
       2.366907604829e-02       2.667314551291e+03 
       2.380175216773e-02       2.658861033344e+03 
       2.393455101254e-02       2.650347682232e+03 
       2.406747518283e-02       2.641776186939e+03 
       2.420052734211e-02       2.633148217688e+03 
       2.433371021891e-02       2.624465425617e+03 
       2.446702660853e-02       2.615729442787e+03 
       2.460047937477e-02       2.606941882141e+03 
       2.473407145176e-02       2.598104337246e+03 
       2.486780584585e-02       2.589218382237e+03 
       2.500168563756e-02       2.580285572027e+03 
       2.513571398357e-02       2.571307441982e+03 
       2.526989411882e-02       2.562285508359e+03 
       2.540422935863e-02       2.553221268143e+03 
       2.553872310094e-02       2.544116199344e+03 
       2.567337882861e-02       2.534971761307e+03 
       2.580820011177e-02       2.525789394987e+03 
       2.594319061032e-02       2.516570522694e+03 
       2.607835407641e-02       2.507316548969e+03 
       2.621369435713e-02       2.498028860113e+03 
       2.634921539719e-02       2.488708824827e+03 
       2.648492124176e-02       2.479357793615e+03 
       2.662081603939e-02       2.469977098943e+03 
       2.675690404503e-02       2.460568055057e+03 
       2.689318962317e-02       2.451131957546e+03 
       2.702967725106e-02       2.441670083045e+03 
       2.716637152212e-02       2.432183688914e+03 
       2.730327714938e-02       2.422674012569e+03 
       2.744039896915e-02       2.413142271491e+03 
       2.757774194475e-02       2.403589662581e+03 
       2.771531117038e-02       2.394017362020e+03 
       2.785311187521e-02       2.384426525360e+03 
       2.799114942755e-02       2.374818287273e+03 
       2.812942933922e-02       2.365193761744e+03 
       2.826795727008e-02       2.355554042732e+03 
       2.840673903271e-02       2.345900204095e+03 
       2.854578059734e-02       2.336233300324e+03 
       2.868508809690e-02       2.326554367242e+03 
       2.882466783232e-02       2.316864422127e+03 
       2.896452627804e-02       2.307164464649e+03 
       2.910467008771e-02       2.297455477026e+03 
       2.924510610019e-02       2.287738424197e+03 
       2.938584134570e-02       2.278014254472e+03 
       2.952688305232e-02       2.268283898886e+03 
       2.966823865271e-02       2.258548271368e+03 
       2.980991579114e-02       2.248808268348e+03 
       2.995192233079e-02       2.239064768321e+03 
       3.009426636140e-02       2.229318631351e+03 
       3.023695620722e-02       2.219570698331e+03 
       3.038000043534e-02       2.209821790845e+03 
       3.052340786436e-02       2.200072710454e+03 
       3.066718757347e-02       2.190324238430e+03 
       3.081134891190e-02       2.180577135744e+03 
       3.095590150885e-02       2.170832142815e+03 
       3.110085528386e-02       2.161089979781e+03 
       3.124622045760e-02       2.151351346942e+03 
       3.139200756329e-02       2.141616924915e+03 
       3.153822745851e-02       2.131887375482e+03 
       3.168489133767e-02       2.122163341701e+03 
       3.183201074508e-02       2.112445448756e+03 
       3.197959758856e-02       2.102734304472e+03 
       3.212766415385e-02       2.093030499437e+03 
       3.227622311963e-02       2.083334607382e+03 
       3.242528757330e-02       2.073647184992e+03 
       3.257487102764e-02       2.063968772369e+03 
       3.272498743819e-02       2.054299892180e+03 
       3.287565122164e-02       2.044641049752e+03 
       3.302687727509e-02       2.034992732159e+03 
       3.317868099640e-02       2.025355408035e+03 
       3.333107830552e-02       2.015729527009e+03 
       3.348408566708e-02       2.006115518774e+03 
       3.363772011411e-02       1.996513793215e+03 
       3.379199927308e-02       1.986924739464e+03 
       3.394694139040e-02       1.977348725993e+03 
       3.410256536028e-02       1.967786100268e+03 
       3.425889075428e-02       1.958237188936e+03 
       3.441593785245e-02       1.948702297571e+03 
       3.457372767639e-02       1.939181711183e+03 
       3.473228202413e-02       1.929675694334e+03 
       3.489162350716e-02       1.920184491198e+03 
       3.505177558962e-02       1.910708326182e+03 
       3.521276262991e-02       1.901247403668e+03 
       3.537460992482e-02       1.891801908644e+03 
       3.553734375646e-02       1.882372006426e+03 
       3.570099144203e-02       1.872957842390e+03 
       3.586558138688e-02       1.863559542560e+03 
       3.603114314090e-02       1.854177212816e+03 
       3.619770745864e-02       1.844810938653e+03 
       3.636530636338e-02       1.835460784984e+03 
       3.653397321550e-02       1.826126795757e+03 
       3.670374278547e-02       1.816808993442e+03 
       3.687465133187e-02       1.807507378655e+03 
       3.704673668484e-02       1.798221929424e+03 
       3.722003833543e-02       1.788952601083e+03 
       3.739459753134e-02       1.779699325433e+03 
       3.757045737956e-02       1.770462009689e+03 
       3.774766295666e-02       1.761240536277e+03 
       3.792626142721e-02       1.752034761496e+03 
       3.810630217122e-02       1.742844514582e+03 
       3.828783692139e-02       1.733669596585e+03 
       3.847091991099e-02       1.724509779500e+03 
       3.865560803350e-02       1.715364804636e+03 
       3.884196101508e-02       1.706234382469e+03 
       3.903004160108e-02       1.697118191169e+03 
       3.921991575802e-02       1.688015876571e+03 
       3.941165289259e-02       1.678927051210e+03 
       3.960532608941e-02       1.669851294033e+03 
       3.980101236939e-02       1.660788150532e+03 
       3.999879297104e-02       1.651737131696e+03 
       4.019875365701e-02       1.642697713430e+03 
       4.040098504868e-02       1.633669335571e+03 
       4.060558299190e-02       1.624651400310e+03 
       4.081264895741e-02       1.615643269836e+03 
       4.102229047978e-02       1.606644263434e+03 
       4.123462163955e-02       1.597653654974e+03 
       4.144976359356e-02       1.588670668815e+03 
       4.166784515934e-02       1.579694476095e+03 
       4.188900346016e-02       1.570724190662e+03 
       4.211338463851e-02       1.561758865281e+03 
       4.234114464659e-02       1.552797487344e+03 
       4.257245012392e-02       1.543838974186e+03 
       4.280747937376e-02       1.534882169123e+03 
       4.304642345160e-02       1.525925836032e+03 
       4.328948738141e-02       1.516968654330e+03 
       4.353689151769e-02       1.508009212730e+03 
       4.378887307445e-02       1.499046002427e+03 
       4.404568784569e-02       1.490077409750e+03 
       4.430761214657e-02       1.481101707314e+03 
       4.457494500914e-02       1.472117044282e+03 
       4.484801067315e-02       1.463121435121e+03 
       4.512716141951e-02       1.454112745296e+03 
       4.541278080340e-02       1.445088675646e+03 
       4.570528735472e-02       1.436046741998e+03 
       4.600513882746e-02       1.426984250702e+03 
       4.631283709557e-02       1.417898269664e+03 
       4.662893381389e-02       1.408785593930e+03 
       4.695403698745e-02       1.399642705611e+03 
       4.728881862390e-02       1.390465729664e+03 
       4.763402368316e-02       1.381250383785e+03 
       4.799048058688e-02       1.371991921139e+03 
       4.835911361222e-02       1.362685061837e+03 
       4.874095757209e-02       1.353323902762e+03 
       4.913717528231e-02       1.343901797773e+03 
       4.954907844140e-02       1.334411196327e+03 
       4.997815270792e-02       1.324843437876e+03 
       5.042608796337e-02       1.315188498567e+03 
       5.089481500733e-02       1.305434685079e+03 
       5.138655026031e-02       1.295568245279e+03 
       5.190385046468e-02       1.285572841231e+03 
       5.244967989109e-02       1.275428812948e+03 
       5.302749318865e-02       1.265112175318e+03 
       5.364133775592e-02       1.254593289630e+03 
       5.429598031207e-02       1.243835073582e+03 
       5.499706308013e-02       1.232790467877e+03 
       5.575129534150e-02       1.221398763812e+03 
       5.656668540240e-02       1.209580432705e+03 
       5.745281485426e-02       1.197229953233e+03 
       5.842114876705e-02       1.184205507829e+03 
