# dimensionless total [l(l+1)/2pi] C_l's
# for l=2 to 3100, i.e. number of multipoles equal to 3099
#
# -> if you prefer output in CAMB/HealPix/LensPix units/order, set 'format' to 'camb' in input file
# -> if you don't want to see such a header, set 'headers' to 'no' in input file
# -> for CMB lensing (phi), these are C_l^phi-phi for the lensing potential.
#    Remember the conversion factors:
#    C_l^dd (deflection) = l(l+1) C_l^phi-phi
#    C_l^gg (shear/convergence) = 1/4 (l(l+1))^2 C_l^phi-phi
#
# 1:l     2:TT                     3:EE                     4:TE                     5:BB                     6:phiphi                 7:TPhi                   8:Ephi               
    2       2.499868438300e-10       5.124448119516e-15       3.980971234117e-13       0.000000000000e+00       8.657676905026e-09       8.052942745204e-10      -2.117665082574e-12 
    3       2.290154016036e-10       7.021523428027e-15       5.265223151088e-13       0.000000000000e+00       5.404508678709e-09       5.809055449565e-10      -1.595046000823e-12 
    4       2.076748708109e-10       6.437741956643e-15       5.211103533569e-13       0.000000000000e+00       3.786107284644e-09       4.457246839010e-10      -1.061072606170e-12 
    5       1.905186565826e-10       4.546133476256e-15       4.460063786524e-13       0.000000000000e+00       2.839725452172e-09       3.560451081632e-10      -6.246588014647e-13 
    6       1.774947889000e-10       2.670335928820e-15       3.510396697306e-13       0.000000000000e+00       2.226595672946e-09       2.926022827893e-10      -2.986727813910e-13 
    7       1.677025136185e-10       1.459155036920e-15       2.650310157987e-13       0.000000000000e+00       1.801791477969e-09       2.455729129168e-10      -7.159588246872e-14 
    8       1.602760484835e-10       8.860914370612e-16       2.003782662292e-13       0.000000000000e+00       1.492747873690e-09       2.094714355918e-10       7.542953236717e-14 
    9       1.546227233823e-10       6.570957579141e-16       1.611835169852e-13       0.000000000000e+00       1.259539578211e-09       1.811082286909e-10       1.587617365128e-13 
   10       1.504170250470e-10       5.478268207896e-16       1.461745540755e-13       0.000000000000e+00       1.078373882899e-09       1.584401505854e-10       1.902224846231e-13 
   11       1.473091595597e-10       4.780615076424e-16       1.458376570171e-13       0.000000000000e+00       9.215689422596e-10       1.397005647183e-10       1.829759204111e-13 
   12       1.450445448122e-10       4.358946951947e-16       1.483132930639e-13       0.000000000000e+00       8.064875167441e-10       1.252367153214e-10       1.417545010588e-13 
   13       1.435321598802e-10       4.145686158229e-16       1.476095983494e-13       0.000000000000e+00       7.117618112015e-10       1.128177473819e-10       8.963149052910e-14 
   14       1.425628774388e-10       4.024860919739e-16       1.448985406179e-13       0.000000000000e+00       6.327953523728e-10       1.008264344246e-10       4.006544412406e-14 
   15       1.420088766226e-10       3.909377819935e-16       1.436661024914e-13       0.000000000000e+00       5.662141914571e-10       9.214794971534e-11       2.636672276302e-15 
   16       1.416981226601e-10       3.800057169163e-16       1.442810998421e-13       0.000000000000e+00       5.094899643514e-10       8.448843052375e-11      -1.707973284537e-14 
   17       1.416839554740e-10       3.804920319432e-16       1.455973649995e-13       0.000000000000e+00       4.607248540567e-10       7.617817012018e-11      -2.276166846698e-14 
   18       1.419478516680e-10       4.062256349026e-16       1.484942550534e-13       0.000000000000e+00       4.183225032845e-10       6.976492890698e-11      -1.881776639815e-14 
   19       1.424682102750e-10       4.597974975136e-16       1.535938610380e-13       0.000000000000e+00       3.815997871701e-10       6.490272739238e-11      -1.090254030938e-14 
   20       1.431501209788e-10       5.382899484345e-16       1.609851352754e-13       0.000000000000e+00       3.491554093036e-10       5.985177290165e-11      -5.870351156446e-15 
   21       1.440014375759e-10       6.382124945759e-16       1.700543492562e-13       0.000000000000e+00       3.205458088048e-10       5.484104520658e-11      -4.785765206083e-15 
   22       1.450158126593e-10       7.552996880289e-16       1.798405841126e-13       0.000000000000e+00       2.951683238435e-10       5.066532582314e-11      -6.580375177428e-15 
   23       1.461891983254e-10       8.890779906060e-16       1.900123402895e-13       0.000000000000e+00       2.726644012873e-10       4.727488785813e-11      -1.046401936633e-14 
   24       1.474872922175e-10       1.039768593742e-15       2.003358570724e-13       0.000000000000e+00       2.524747171590e-10       4.427507008471e-11      -1.538352560833e-14 
   25       1.489091557136e-10       1.205956774501e-15       2.103149644108e-13       0.000000000000e+00       2.343544698498e-10       4.142694748349e-11      -1.958840861897e-14 
   26       1.504405032263e-10       1.385928369513e-15       2.193566816631e-13       0.000000000000e+00       2.179807308888e-10       3.855526298761e-11      -2.123930726767e-14 
   27       1.520690266575e-10       1.580971618185e-15       2.271944076358e-13       0.000000000000e+00       2.031677517050e-10       3.581848506761e-11      -2.044808231706e-14 
   28       1.537701516218e-10       1.793494159859e-15       2.337073688330e-13       0.000000000000e+00       1.896726711142e-10       3.344628535935e-11      -1.805393980220e-14 
   29       1.555503463140e-10       2.025697883099e-15       2.389949482144e-13       0.000000000000e+00       1.774277055491e-10       3.142775344320e-11      -1.476907588192e-14 
   30       1.574092330531e-10       2.279976215760e-15       2.432854780028e-13       0.000000000000e+00       1.662990509172e-10       2.963904379752e-11      -1.143531015116e-14 
   31       1.593322500344e-10       2.558681458223e-15       2.468350426898e-13       0.000000000000e+00       1.560584641397e-10       2.793824163321e-11      -8.937791682098e-15 
   32       1.613234897844e-10       2.862696883165e-15       2.496962994860e-13       0.000000000000e+00       1.466562236803e-10       2.631904545790e-11      -7.505173156513e-15 
   33       1.633816786055e-10       3.192310388955e-15       2.518655933625e-13       0.000000000000e+00       1.380315075527e-10       2.481168203287e-11      -7.148422774430e-15 
   34       1.654961594558e-10       3.547698365061e-15       2.533109828503e-13       0.000000000000e+00       1.300695369269e-10       2.343677811033e-11      -7.772765471336e-15 
   35       1.676687588106e-10       3.929399259192e-15       2.538626369919e-13       0.000000000000e+00       1.227298352278e-10       2.218543569710e-11      -8.953390092622e-15 
   36       1.698973064414e-10       4.337987130747e-15       2.532799526066e-13       0.000000000000e+00       1.159519944450e-10       2.103032053457e-11      -1.006617673454e-14 
   37       1.721735221871e-10       4.774019702450e-15       2.513248515778e-13       0.000000000000e+00       1.096463473999e-10       1.993958527937e-11      -1.050427388982e-14 
   38       1.744995356020e-10       5.238313763364e-15       2.479252921018e-13       0.000000000000e+00       1.037965137296e-10       1.891088174078e-11      -1.025453436779e-14 
   39       1.768753016743e-10       5.731755634268e-15       2.430648247960e-13       0.000000000000e+00       9.838435866451e-11       1.794742979049e-11      -9.509622157889e-15 
   40       1.792932135796e-10       6.255226606256e-15       2.367398944638e-13       0.000000000000e+00       9.335886688473e-11       1.704841492763e-11      -8.518585726532e-15 
   41       1.817426559314e-10       6.809566429022e-15       2.289606690287e-13       0.000000000000e+00       8.865385277601e-11       1.620995260616e-11      -7.543170214124e-15 
   42       1.842272593843e-10       7.395451080985e-15       2.197518120346e-13       0.000000000000e+00       8.425492231784e-11       1.542929249898e-11      -6.700447361414e-15 
   43       1.867519941534e-10       8.013474088796e-15       2.091533891563e-13       0.000000000000e+00       8.014948029213e-11       1.470132909284e-11      -6.075399399144e-15 
   44       1.893179658119e-10       8.664175866155e-15       1.972217404871e-13       0.000000000000e+00       7.630660437130e-11       1.401707702617e-11      -5.764564417905e-15 
   45       1.919238248282e-10       9.348065676021e-15       1.840038670264e-13       0.000000000000e+00       7.268803961082e-11       1.336658033228e-11      -5.841411167892e-15 
   46       1.945714156693e-10       1.006570274393e-14       1.694494787775e-13       0.000000000000e+00       6.928852809926e-11       1.274937345424e-11      -6.238836003180e-15 
   47       1.972611539119e-10       1.081763405484e-14       1.534740817589e-13       0.000000000000e+00       6.610506281852e-11       1.216664516557e-11      -6.832463555405e-15 
   48       1.999900952507e-10       1.160436970771e-14       1.359824834619e-13       0.000000000000e+00       6.312476776473e-11       1.161819746328e-11      -7.471324388474e-15 
   49       2.027516495578e-10       1.242638122216e-14       1.168681095811e-13       0.000000000000e+00       6.032416078428e-11       1.110233472181e-11      -7.976374141665e-15 
   50       2.055385249051e-10       1.328406655039e-14       9.603283839203e-14       0.000000000000e+00       5.767624980590e-11       1.061649486195e-11      -8.190474784218e-15 
   51       2.083531651079e-10       1.417763784544e-14       7.345443607315e-14       0.000000000000e+00       5.517580255190e-11       1.015960199440e-11      -8.147767968575e-15 
   52       2.111996510668e-10       1.510720030176e-14       4.913624486602e-14       0.000000000000e+00       5.281966177118e-11       9.730160770476e-12      -7.947716407348e-15 
   53       2.140805876568e-10       1.607277960451e-14       2.308854082909e-14       0.000000000000e+00       5.059915154958e-11       9.325496054828e-12      -7.708578532952e-15 
   54       2.169969697842e-10       1.707431866930e-14      -4.671183895832e-15       0.000000000000e+00       4.849970877630e-11       8.941676997694e-12      -7.568349387134e-15 
   55       2.199488480042e-10       1.811175452991e-14      -3.412830654326e-14       0.000000000000e+00       4.650523159047e-11       8.574644121847e-12      -7.649722381376e-15 
   56       2.229378258596e-10       1.918527883729e-14      -6.530491070236e-14       0.000000000000e+00       4.461323400081e-11       8.224092406639e-12      -7.942626143296e-15 
   57       2.259649483225e-10       2.029513636361e-14      -9.823386075842e-14       0.000000000000e+00       4.282281048325e-11       7.890419852071e-12      -8.394155343087e-15 
   58       2.290298560339e-10       2.144155038964e-14      -1.329492896569e-13       0.000000000000e+00       4.113006810966e-11       7.573580555621e-12      -8.941542353188e-15 
   59       2.321306825125e-10       2.262472256724e-14      -1.694867205743e-13       0.000000000000e+00       3.952794179271e-11       7.273055655246e-12      -9.511696353564e-15 
   60       2.352639513627e-10       2.384483278180e-14      -2.078831885888e-13       0.000000000000e+00       3.800600953065e-11       6.987824272387e-12      -1.002074243698e-14 
   61       2.384260679762e-10       2.510194075633e-14      -2.481675256057e-13       0.000000000000e+00       3.655338826637e-11       6.716700145661e-12      -1.039288403611e-14 
   62       2.416184184465e-10       2.639566536631e-14      -2.903283916603e-13       0.000000000000e+00       3.516859900488e-11       6.459495564795e-12      -1.062298040671e-14 
   63       2.448432379638e-10       2.772543277192e-14      -3.343392511487e-13       0.000000000000e+00       3.385159825336e-11       6.216068320981e-12      -1.072726139027e-14 
   64       2.481020661497e-10       2.909056513393e-14      -3.801673897039e-13       0.000000000000e+00       3.260080751754e-11       5.985961961849e-12      -1.072539275917e-14 
   65       2.513956948575e-10       3.049027735846e-14      -4.277737237550e-13       0.000000000000e+00       3.141302629208e-11       5.768388337554e-12      -1.064062843640e-14 
   66       2.547241159732e-10       3.192367384178e-14      -4.771126100853e-13       0.000000000000e+00       3.028334505091e-11       5.562210146880e-12      -1.049996271516e-14 
   67       2.580864692154e-10       3.338974521509e-14      -5.281316553903e-13       0.000000000000e+00       2.920505823769e-11       5.365923483326e-12      -1.033428247858e-14 
   68       2.614817299178e-10       3.488749216618e-14      -5.807821903117e-13       0.000000000000e+00       2.817143736823e-11       5.178033080202e-12      -1.017191776598e-14 
   69       2.649110508889e-10       3.641633331530e-14      -6.350535817102e-13       0.000000000000e+00       2.718166203073e-11       4.998305353479e-12      -1.001743570222e-14 
   70       2.683758034812e-10       3.797577451759e-14      -6.909455627893e-13       0.000000000000e+00       2.623593987626e-11       4.826739070034e-12      -9.868803371506e-15 
   71       2.718768469176e-10       3.956528909369e-14      -7.484582646112e-13       0.000000000000e+00       2.533371410986e-11       4.663187835963e-12      -9.723592959669e-15 
   72       2.754144950174e-10       4.118431782453e-14      -8.075922984042e-13       0.000000000000e+00       2.447362405420e-11       4.507352686130e-12      -9.578965133574e-15 
   73       2.789884829220e-10       4.283226894620e-14      -8.683488378693e-13       0.000000000000e+00       2.365346571306e-11       4.358774673714e-12      -9.431652420547e-15 
   74       2.825979338207e-10       4.450851814477e-14      -9.307297014879e-13       0.000000000000e+00       2.287015233502e-11       4.216827459756e-12      -9.277942587803e-15 
   75       2.862413256765e-10       4.621240855112e-14      -9.947374348283e-13       0.000000000000e+00       2.211967497694e-11       4.080709902701e-12      -9.113662021869e-15 
   76       2.899171545390e-10       4.794318563254e-14      -1.060368108234e-12       0.000000000000e+00       2.139808993155e-11       3.949651214471e-12      -8.935674864044e-15 
   77       2.936261376800e-10       4.969978817179e-14      -1.127588011674e-12       0.000000000000e+00       2.070477606465e-11       3.823586000407e-12      -8.746732764472e-15 
   78       2.973693536244e-10       5.148101898560e-14      -1.196352839873e-12       0.000000000000e+00       2.003970258075e-11       3.702589424725e-12      -8.551483416697e-15 
   79       3.011475625214e-10       5.328560532803e-14      -1.266614533935e-12       0.000000000000e+00       1.940243677197e-11       3.586672562164e-12      -8.355047485406e-15 
   80       3.049611871545e-10       5.511219755027e-14      -1.338321214269e-12       0.000000000000e+00       1.879212563832e-11       3.475779346375e-12      -8.163033067657e-15 
   81       3.088102939518e-10       5.695936776055e-14      -1.411417113518e-12       0.000000000000e+00       1.820747750799e-11       3.369783518326e-12      -7.981550154112e-15 
   82       3.126945739952e-10       5.882560848390e-14      -1.485842509494e-12       0.000000000000e+00       1.764674365752e-11       3.268485574687e-12      -7.817225090261e-15 
   83       3.166133240310e-10       6.070933132206e-14      -1.561533658102e-12       0.000000000000e+00       1.710769993216e-11       3.171609716233e-12      -7.677215037658e-15 
   84       3.205658159145e-10       6.260893829444e-14      -1.638427888188e-12       0.000000000000e+00       1.658818024925e-11       3.078867697395e-12      -7.567376805707e-15 
   85       3.245525169130e-10       6.452305238543e-14      -1.716480003424e-12       0.000000000000e+00       1.608781898881e-11       2.990169221197e-12      -7.486392876093e-15 
   86       3.285740378263e-10       6.645032293750e-14      -1.795648489179e-12       0.000000000000e+00       1.560656509906e-11       2.905440990549e-12      -7.430693583988e-15 
   87       3.326307502606e-10       6.838935625143e-14      -1.875890611759e-12       0.000000000000e+00       1.514414692524e-11       2.824561009424e-12      -7.396199853575e-15 
   88       3.367227741669e-10       7.033871546764e-14      -1.957162438094e-12       0.000000000000e+00       1.470006310522e-11       2.747356655638e-12      -7.378306640297e-15 
   89       3.408499653788e-10       7.229692044756e-14      -2.039418855418e-12       0.000000000000e+00       1.427357346508e-11       2.673602753638e-12      -7.371866373105e-15 
   90       3.450119031512e-10       7.426244765503e-14      -2.122613590960e-12       0.000000000000e+00       1.386368991472e-11       2.603019647286e-12      -7.371172396704e-15 
   91       3.492078776982e-10       7.623373003762e-14      -2.206699231623e-12       0.000000000000e+00       1.346916734347e-11       2.535271272644e-12      -7.369942413802e-15 
   92       3.534368777316e-10       7.820915690808e-14      -2.291627243674e-12       0.000000000000e+00       1.308849451569e-11       2.469963230757e-12      -7.361301927359e-15 
   93       3.576979201107e-10       8.018709131192e-14      -2.377346959880e-12       0.000000000000e+00       1.272024848944e-11       2.406731933605e-12      -7.339292135357e-15 
   94       3.619911225732e-10       8.216592537601e-14      -2.463802323932e-12       0.000000000000e+00       1.236423862279e-11       2.345531564882e-12      -7.303689002029e-15 
   95       3.663167700534e-10       8.414403310386e-14      -2.550934690500e-12       0.000000000000e+00       1.202051859364e-11       2.286386915730e-12      -7.255881734144e-15 
   96       3.706749792845e-10       8.611975375082e-14      -2.638683819585e-12       0.000000000000e+00       1.168903414814e-11       2.229305489120e-12      -7.197417218191e-15 
   97       3.750656910329e-10       8.809139194546e-14      -2.726987882036e-12       0.000000000000e+00       1.136961898637e-11       2.174276822791e-12      -7.130004388541e-15 
   98       3.794886623324e-10       9.005721781105e-14      -2.815783465054e-12       0.000000000000e+00       1.106199064793e-11       2.121271812171e-12      -7.055518595605e-15 
   99       3.839434587190e-10       9.201546708689e-14      -2.905005577710e-12       0.000000000000e+00       1.076574639758e-11       2.070242033314e-12      -6.976005973987e-15 
  100       3.884294464650e-10       9.396434124973e-14      -2.994587656451e-12       0.000000000000e+00       1.048035911087e-11       2.021119065832e-12      -6.893687810647e-15 
  101       3.929457848131e-10       9.590200763521e-14      -3.084461570615e-12       0.000000000000e+00       1.020517315974e-11       1.973813815821e-12      -6.810964913055e-15 
  102       3.974914182113e-10       9.782659955923e-14      -3.174557627939e-12       0.000000000000e+00       9.939400298207e-12       1.928215838796e-12      -6.730421977351e-15 
  103       4.020650685468e-10       9.973621643936e-14      -3.264804580076e-12       0.000000000000e+00       9.682115547907e-12       1.884192662619e-12      -6.654831956500e-15 
  104       4.066655171965e-10       1.016289747040e-13      -3.355130949603e-12       0.000000000000e+00       9.432464462398e-12       1.841618961205e-12      -6.586555722957e-15 
  105       4.112925112967e-10       1.035031680904e-13      -3.445469203364e-12       0.000000000000e+00       9.190325668384e-12       1.800470022190e-12      -6.525639288727e-15 
  106       4.159459659897e-10       1.053571293277e-13      -3.535752155785e-12       0.000000000000e+00       8.955730570412e-12       1.760739701908e-12      -6.471466494375e-15 
  107       4.206256810147e-10       1.071891819542e-13      -3.625911717509e-12       0.000000000000e+00       8.728658194531e-12       1.722411357289e-12      -6.423338511918e-15 
