# dimensionless total [l(l+1)/2pi] C_l's
# for l=2 to 3100, i.e. number of multipoles equal to 3099
#
# -> if you prefer output in CAMB/HealPix/LensPix units/order, set 'format' to 'camb' in input file
# -> if you don't want to see such a header, set 'headers' to 'no' in input file
# -> for CMB lensing (phi), these are C_l^phi-phi for the lensing potential.
#    Remember the conversion factors:
#    C_l^dd (deflection) = l(l+1) C_l^phi-phi
#    C_l^gg (shear/convergence) = 1/4 (l(l+1))^2 C_l^phi-phi
#
# 1:l     2:TT                     3:EE                     4:TE                     5:BB                     6:phiphi                 7:TPhi                   8:Ephi               
    2       2.936814327753e-10       5.388128878814e-15       4.578106626316e-13       0.000000000000e+00       9.467967413410e-09       9.938533126799e-10      -2.117077176138e-12 
    3       2.586230011436e-10       7.345077481793e-15       5.725092323873e-13       0.000000000000e+00       5.884320058701e-09       7.026408831094e-10      -1.619257489483e-12 
    4       2.287308892414e-10       6.701317964825e-15       5.434842599279e-13       0.000000000000e+00       4.116471903988e-09       5.310570395759e-10      -1.095222359237e-12 
    5       2.061914746818e-10       4.713654464418e-15       4.531826094514e-13       0.000000000000e+00       3.082266417593e-09       4.189538198586e-10      -6.320552822713e-13 
    6       1.895001888501e-10       2.737031850837e-15       3.546417603507e-13       0.000000000000e+00       2.411003453338e-09       3.405090057572e-10      -2.495765743017e-13 
    7       1.770749148100e-10       1.443117438955e-15       2.765933439906e-13       0.000000000000e+00       1.945107757569e-09       2.830540708860e-10       3.390436276030e-14 
    8       1.677884304155e-10       8.491892979514e-16       2.246822126007e-13       0.000000000000e+00       1.605985290887e-09       2.395875281972e-10       2.050107115948e-13 
    9       1.608631469150e-10       6.563003078529e-16       1.883166805458e-13       0.000000000000e+00       1.350450262109e-09       2.058509825830e-10       2.658264748451e-13 
   10       1.557409260340e-10       5.773399141545e-16       1.575504446051e-13       0.000000000000e+00       1.152740888803e-09       1.790617235022e-10       2.407334123176e-13 
   11       1.518814069399e-10       4.929377306157e-16       1.331360863380e-13       0.000000000000e+00       9.830861128983e-10       1.574658027805e-10       1.730617036274e-13 
   12       1.489238278634e-10       4.120602734213e-16       1.209654357256e-13       0.000000000000e+00       8.595846377815e-10       1.405790023841e-10       9.030824021235e-14 
   13       1.466670661690e-10       3.647224721208e-16       1.203202566376e-13       0.000000000000e+00       7.557770398650e-10       1.235004021274e-10       1.746294372840e-14 
   14       1.450129054401e-10       3.510580414118e-16       1.244706328771e-13       0.000000000000e+00       6.714044150318e-10       1.120156660438e-10      -2.704578806422e-14 
   15       1.438861155902e-10       3.532926236613e-16       1.293465191561e-13       0.000000000000e+00       5.987615721160e-10       1.001363762213e-10      -4.652808940312e-14 
   16       1.432025360346e-10       3.596433786113e-16       1.346917508370e-13       0.000000000000e+00       5.373194092903e-10       9.080914740586e-11      -4.958053246583e-14 
   17       1.429029121712e-10       3.726898608359e-16       1.405453283912e-13       0.000000000000e+00       4.851333731641e-10       8.238691503582e-11      -4.018290832337e-14 
   18       1.429094230336e-10       4.033403594738e-16       1.464733091320e-13       0.000000000000e+00       4.395961890661e-10       7.496776386618e-11      -2.732007572908e-14 
   19       1.432148201110e-10       4.567710032995e-16       1.528087799661e-13       0.000000000000e+00       4.000445855687e-10       6.865866696632e-11      -1.569706647908e-14 
   20       1.437430670875e-10       5.345905772350e-16       1.601524897829e-13       0.000000000000e+00       3.652948412089e-10       6.297399996442e-11      -8.232261445192e-15 
   21       1.444838109955e-10       6.343192647482e-16       1.686696440953e-13       0.000000000000e+00       3.347984853041e-10       5.782353685459e-11      -5.597571455368e-15 
   22       1.453980383676e-10       7.514825704044e-16       1.782682349540e-13       0.000000000000e+00       3.077116815109e-10       5.317411687693e-11      -7.258094879719e-15 
   23       1.464792829053e-10       8.851037422621e-16       1.885721756775e-13       0.000000000000e+00       2.836514696668e-10       4.901377997298e-11      -1.157501662300e-14 
   24       1.476985557460e-10       1.034855778258e-15       1.989971186727e-13       0.000000000000e+00       2.620874286507e-10       4.529097677330e-11      -1.627683748586e-14 
   25       1.490505658655e-10       1.199463129925e-15       2.089249651202e-13       0.000000000000e+00       2.427789696863e-10       4.198479431098e-11      -1.987181715929e-14 
   26       1.505157387367e-10       1.377585670155e-15       2.177366378536e-13       0.000000000000e+00       2.253856186747e-10       3.904281508846e-11      -2.120129589669e-14 
   27       1.520941012734e-10       1.570656521813e-15       2.252801794745e-13       0.000000000000e+00       2.096965189903e-10       3.638841597910e-11      -2.033320598650e-14 
   28       1.537767786005e-10       1.781161311158e-15       2.315847481754e-13       0.000000000000e+00       1.954335903686e-10       3.392490585711e-11      -1.785193293120e-14 
   29       1.555673678299e-10       2.011334024542e-15       2.367504955130e-13       0.000000000000e+00       1.825117595710e-10       3.165131067665e-11      -1.445747139337e-14 
   30       1.574543245136e-10       2.263586374479e-15       2.409500664158e-13       0.000000000000e+00       1.707761550849e-10       2.958128435845e-11      -1.106404484849e-14 
   31       1.594109369440e-10       2.540265372153e-15       2.443820615648e-13       0.000000000000e+00       1.599736016588e-10       2.770974747225e-11      -8.624217528090e-15 
   32       1.614392683647e-10       2.842144540429e-15       2.470983721207e-13       0.000000000000e+00       1.500584334097e-10       2.601674487536e-11      -7.343122196829e-15 
   33       1.635390894736e-10       3.169344128343e-15       2.491147189827e-13       0.000000000000e+00       1.409816116349e-10       2.446112258710e-11      -7.169752020424e-15 
   34       1.656998446748e-10       3.521887216434e-15       2.504186322400e-13       0.000000000000e+00       1.326357035270e-10       2.299371971260e-11      -7.942228935757e-15 
   35       1.679184756471e-10       3.900361721509e-15       2.508412775363e-13       0.000000000000e+00       1.249710476426e-10       2.161455978236e-11      -9.206819605167e-15 
   36       1.701854515605e-10       4.305473333709e-15       2.501366744403e-13       0.000000000000e+00       1.179086234471e-10       2.033392224258e-11      -1.031981875792e-14 
   37       1.724865895445e-10       4.737914180226e-15       2.480601123641e-13       0.000000000000e+00       1.113388724082e-10       1.915620225215e-11      -1.066225141616e-14 
   38       1.748297581431e-10       5.198527646152e-15       2.445328445888e-13       0.000000000000e+00       1.052431029905e-10       1.807830958153e-11      -1.024933866780e-14 
   39       1.772255858269e-10       5.688194016480e-15       2.395306879905e-13       0.000000000000e+00       9.960543926871e-11       1.708966152975e-11      -9.321230900014e-15 
   40       1.796795434756e-10       6.207785155512e-15       2.330408974097e-13       0.000000000000e+00       9.437656546721e-11       1.617178166074e-11      -8.185660762363e-15 
   41       1.821922377461e-10       6.758121138114e-15       2.250672690719e-13       0.000000000000e+00       8.949112644929e-11       1.530410376822e-11      -7.157501358388e-15 
   42       1.847618533812e-10       7.339825464440e-15       2.156456133854e-13       0.000000000000e+00       8.493379015474e-11       1.448521354257e-11      -6.342855398678e-15 
   43       1.873814925656e-10       7.953421101940e-15       2.048346042480e-13       0.000000000000e+00       8.068975564555e-11       1.371743132159e-11      -5.792326662627e-15 
   44       1.900378174306e-10       8.599365026962e-15       1.927129164888e-13       0.000000000000e+00       7.672477043756e-11       1.300075647983e-11      -5.560012859566e-15 
   45       1.927163407419e-10       9.278092197022e-15       1.793470904262e-13       0.000000000000e+00       7.299692253021e-11       1.233344936085e-11      -5.679512390205e-15 
   46       1.954204582316e-10       9.990172279753e-15       1.646811849890e-13       0.000000000000e+00       6.949983527598e-11       1.171446589852e-11      -6.083251790844e-15 
   47       1.981571864726e-10       1.073619318508e-14       1.486159283586e-13       0.000000000000e+00       6.622977669845e-11       1.114140338098e-11      -6.659140793215e-15 
   48       2.009316259636e-10       1.151671619186e-14       1.310382085201e-13       0.000000000000e+00       6.317270793910e-11       1.060962257337e-11      -7.271239040157e-15 
   49       2.037467562879e-10       1.233227482676e-14       1.118202159789e-13       0.000000000000e+00       6.030351672719e-11       1.011208872642e-11      -7.758429924297e-15 
   50       2.066036907398e-10       1.318332740762e-14       9.084509013096e-14       0.000000000000e+00       5.759351850781e-11       9.641283002037e-12      -7.979669892171e-15 
   51       2.095029969182e-10       1.407010208885e-14       6.809405411097e-14       0.000000000000e+00       5.503713853647e-11       9.195917266214e-12      -7.967292828146e-15 
   52       2.124433805124e-10       1.499270781737e-14       4.358144984687e-14       0.000000000000e+00       5.263114734324e-11       8.775767124394e-12      -7.813026061419e-15 
   53       2.154210782897e-10       1.595117376856e-14       1.733068228423e-14       0.000000000000e+00       5.036665757022e-11       8.379700706331e-12      -7.625896973777e-15 
   54       2.184296748768e-10       1.694544604463e-14      -1.062539066641e-14       0.000000000000e+00       4.822874650776e-11       8.005617106096e-12      -7.533098624888e-15 
   55       2.214626386780e-10       1.797546394489e-14      -4.025802627375e-14       0.000000000000e+00       4.620086872562e-11       7.651129480789e-12      -7.647517221571e-15 
   56       2.245220870937e-10       1.904141852809e-14      -7.158814184898e-14       0.000000000000e+00       4.428024237651e-11       7.315954094658e-12      -7.958884902366e-15 
   57       2.276118778470e-10       2.014355249940e-14      -1.046514011808e-13       0.000000000000e+00       4.246562402313e-11       7.000006937667e-12      -8.417103178592e-15 
   58       2.307350050247e-10       2.128208606914e-14      -1.394853982611e-13       0.000000000000e+00       4.075266674571e-11       6.702679225837e-12      -8.962788177761e-15 
   59       2.338935217983e-10       2.245721675122e-14      -1.761298111592e-13       0.000000000000e+00       3.913372930519e-11       6.422804853938e-12      -9.526837379670e-15 
   60       2.370884631446e-10       2.366911916181e-14      -2.146265558961e-13       0.000000000000e+00       3.759768530657e-11       6.158627848163e-12      -1.002999635250e-14 
   61       2.403202412062e-10       2.491784771399e-14      -2.550091409075e-13       0.000000000000e+00       3.613296963806e-11       5.908276889830e-12      -1.040052147600e-14 
   62       2.435901099014e-10       2.620301963500e-14      -2.972675900511e-13       0.000000000000e+00       3.473794858379e-11       5.671386983311e-12      -1.063278112733e-14 
   63       2.468988934243e-10       2.752406011754e-14      -3.413758834124e-13       0.000000000000e+00       3.341254934432e-11       5.447785689646e-12      -1.074109918794e-14 
   64       2.502464815663e-10       2.888028992774e-14      -3.873018769090e-13       0.000000000000e+00       3.215514178482e-11       5.237002043312e-12      -1.074295787809e-14 
   65       2.536317674333e-10       3.027092212267e-14      -4.350071135067e-13       0.000000000000e+00       3.096245031471e-11       5.038250093880e-12      -1.065913866493e-14 
   66       2.570525851630e-10       3.169505876786e-14      -4.844466344377e-13       0.000000000000e+00       2.982946576720e-11       4.850412447691e-12      -1.051386317059e-14 
   67       2.605056476423e-10       3.315168765482e-14      -5.355687904171e-13       0.000000000000e+00       2.874935727893e-11       4.672023809509e-12      -1.033493408022e-14 
   68       2.639877689791e-10       3.463981171569e-14      -5.883255510696e-13       0.000000000000e+00       2.771526124055e-11       4.501640964735e-12      -1.014828308665e-14 
   69       2.674999587774e-10       3.615887505498e-14      -6.427062809407e-13       0.000000000000e+00       2.672626605322e-11       4.339076569864e-12      -9.960016916600e-15 
   70       2.710440493946e-10       3.770841774292e-14      -6.987104997021e-13       0.000000000000e+00       2.578248730981e-11       4.184386942642e-12      -9.770969775110e-15 
   71       2.746214556936e-10       3.928795086568e-14      -7.563380677727e-13       0.000000000000e+00       2.488325862595e-11       4.037501284203e-12      -9.581972328805e-15 
   72       2.782331456185e-10       4.089695663667e-14      -8.155892660327e-13       0.000000000000e+00       2.402709152661e-11       3.898215104126e-12      -9.393849571449e-15 
   73       2.818796107703e-10       4.253488850787e-14      -8.764648755366e-13       0.000000000000e+00       2.321163533257e-11       3.766183645486e-12      -9.207418689479e-15 
   74       2.855608369820e-10       4.420117128116e-14      -9.389662572273e-13       0.000000000000e+00       2.243363704698e-11       3.640915309916e-12      -9.023486927542e-15 
   75       2.892762748945e-10       4.589520121957e-14      -1.003095431650e-12       0.000000000000e+00       2.168890124186e-11       3.521765082652e-12      -8.842849454035e-15 
   76       2.930252911301e-10       4.761627174700e-14      -1.068848073081e-12       0.000000000000e+00       2.097331048008e-11       3.408082850365e-12      -8.666402378811e-15 
   77       2.968086818390e-10       4.936333465889e-14      -1.136190840801e-12       0.000000000000e+00       2.028619007898e-11       3.299704113528e-12      -8.495510317793e-15 
   78       3.006273829797e-10       5.113519536706e-14      -1.205080039685e-12       0.000000000000e+00       1.962748690023e-11       3.196537228208e-12      -8.331702289066e-15 
   79       3.044819949530e-10       5.293058205672e-14      -1.275468274550e-12       0.000000000000e+00       1.899674517835e-11       3.098413107995e-12      -8.176562730101e-15 
   80       3.083727630327e-10       5.474814427189e-14      -1.347304384565e-12       0.000000000000e+00       1.839308815433e-11       3.005081825252e-12      -8.031731724591e-15 
   81       3.122995577966e-10       5.658645150085e-14      -1.420533377676e-12       0.000000000000e+00       1.781519970933e-11       2.916209212377e-12      -7.898905229268e-15 
   82       3.162618555568e-10       5.844399176159e-14      -1.495096365020e-12       0.000000000000e+00       1.726130599833e-11       2.831373463058e-12      -7.779835300736e-15 
   83       3.202587187901e-10       6.031917018723e-14      -1.570930495344e-12       0.000000000000e+00       1.672915708379e-11       2.750061733526e-12      -7.676330322294e-15 
   84       3.242892027809e-10       6.221038579946e-14      -1.647973891857e-12       0.000000000000e+00       1.621656232830e-11       2.671788638842e-12      -7.589679865452e-15 
   85       3.283536958691e-10       6.411627955086e-14      -1.726181546800e-12       0.000000000000e+00       1.572313878329e-11       2.596481757327e-12      -7.518819227422e-15 
   86       3.324527665404e-10       6.603552500042e-14      -1.805511953869e-12       0.000000000000e+00       1.524882032000e-11       2.524154100310e-12      -7.461859613948e-15 
   87       3.365867447457e-10       6.796675368259e-14      -1.885922358283e-12       0.000000000000e+00       1.479332071514e-11       2.454786569111e-12      -7.416627146586e-15 
   88       3.407557094954e-10       6.990855500682e-14      -1.967368775270e-12       0.000000000000e+00       1.435612459143e-11       2.388326604952e-12      -7.380653419531e-15 
   89       3.449594764526e-10       7.185947615706e-14      -2.049806008567e-12       0.000000000000e+00       1.393647835811e-11       2.324686838864e-12      -7.351166056435e-15 
   90       3.491975855273e-10       7.381802199132e-14      -2.133187668908e-12       0.000000000000e+00       1.353338115153e-11       2.263743741607e-12      -7.325079267227e-15 
   91       3.534692884703e-10       7.578265494117e-14      -2.217466192517e-12       0.000000000000e+00       1.314557577563e-11       2.205336273573e-12      -7.298984404937e-15 
   92       3.577735364667e-10       7.775179491125e-14      -2.302592859603e-12       0.000000000000e+00       1.277153964249e-11       2.149264534708e-12      -7.269140522514e-15 
   93       3.621093180054e-10       7.972383417374e-14      -2.388516910335e-12       0.000000000000e+00       1.240983927817e-11       2.095334424385e-12      -7.232289682162e-15 
   94       3.664767575601e-10       8.169718483227e-14      -2.475182700522e-12       0.000000000000e+00       1.206027450799e-11       2.043502236922e-12      -7.188263662589e-15 
   95       3.708761599809e-10       8.367023834402e-14      -2.562532150349e-12       0.000000000000e+00       1.172289040744e-11       1.993749418255e-12      -7.137753665448e-15 
   96       3.753076674464e-10       8.564135126481e-14      -2.650505614799e-12       0.000000000000e+00       1.139762505576e-11       1.946037784800e-12      -7.081522348049e-15 
   97       3.797712518657e-10       8.760884535448e-14      -2.739041889749e-12       0.000000000000e+00       1.108430546705e-11       1.900308804931e-12      -7.020405701425e-15 
   98       3.842667072800e-10       8.957100768222e-14      -2.828078218084e-12       0.000000000000e+00       1.078264352140e-11       1.856482880469e-12      -6.955314928396e-15 
   99       3.887936422651e-10       9.152609073197e-14      -2.917550295794e-12       0.000000000000e+00       1.049223189605e-11       1.814458628163e-12      -6.887238321632e-15 
  100       3.933514723330e-10       9.347231250773e-14      -3.007392278079e-12       0.000000000000e+00       1.021253999651e-11       1.774112161172e-12      -6.817243141715e-15 
  101       3.979394123342e-10       9.540785663893e-14      -3.097536785456e-12       0.000000000000e+00       9.942909887690e-12       1.735296370550e-12      -6.746477495205e-15 
  102       4.025564688594e-10       9.733087248581e-14      -3.187914909859e-12       0.000000000000e+00       9.682552225050e-12       1.697840206730e-12      -6.676172212701e-15 
  103       4.072014326418e-10       9.923947524475e-14      -3.278456220745e-12       0.000000000000e+00       9.430542185733e-12       1.661547961005e-12      -6.607642726906e-15 
  104       4.118731455557e-10       1.011317965863e-13      -3.369089984877e-12       0.000000000000e+00       9.186025815159e-12       1.626241621708e-12      -6.542017027685e-15 
  105       4.165713590544e-10       1.030061441327e-13      -3.459749000186e-12       0.000000000000e+00       8.948879576156e-12       1.591896006650e-12      -6.479373629108e-15 
  106       4.212959780699e-10       1.048608638203e-13      -3.550366293600e-12       0.000000000000e+00       8.719132724547e-12       1.558520630566e-12      -6.419490113465e-15 
  107       4.260467922461e-10       1.066942919431e-13      -3.640873972814e-12       0.000000000000e+00       8.496763114371e-12       1.526118018300e-12      -6.362105537203e-15 
