# Matter power spectrum P(k) at redshift z=3
# for k=1.02089e-05 to 1.4771 h/Mpc,
# number of wavenumbers equal to 609
#    1:k (h/Mpc)              2:P (Mpc/h)^3        
       1.020887153728e-05       5.745138881321e+00 
       2.306064943826e-05       1.263624769216e+01 
       3.595684120405e-05       1.941838400179e+01 
       4.893198611325e-05       2.616006404605e+01 
       6.202118709392e-05       3.290080505623e+01 
       7.526042231512e-05       3.967062119913e+01 
       8.868686663154e-05       4.649545473983e+01 
       1.023392271411e-04       5.339940131129e+01 
       1.162580971481e-04       6.040585557735e+01 
       1.304863328582e-04       6.753821075892e+01 
       1.450694571390e-04       7.482034988748e+01 
       1.600560946239e-04       8.227703301257e+01 
       1.754984422688e-04       8.993423147432e+01 
       1.914527791141e-04       9.781943648402e+01 
       2.079800183717e-04       1.059619573257e+02 
       2.251463039185e-04       1.143932178189e+02 
       2.430236516676e-04       1.231470553844e+02 
       2.616906338990e-04       1.322600237377e+02 
       2.812331011960e-04       1.417716971541e+02 
       3.017449318304e-04       1.517249709157e+02 
       3.233287918999e-04       1.621663486475e+02 
       3.460968808573e-04       1.731462024895e+02 
       3.701716258919e-04       1.847189862674e+02 
       3.956862746947e-04       1.969433749077e+02 
       4.227853194351e-04       2.098822953882e+02 
       4.516246658008e-04       2.236028058842e+02 
       4.823714409578e-04       2.381757712499e+02 
       5.152033156945e-04       2.536752759501e+02 
       5.503072027293e-04       2.701777121474e+02 
       5.878771908279e-04       2.877604837648e+02 
       6.281115901291e-04       3.065002804792e+02 
       6.712090057306e-04       3.264709023236e+02 
       7.173634306357e-04       3.477406583587e+02 
       7.667584578230e-04       3.703694215934e+02 
       8.195608487202e-04       3.944054923956e+02 
       8.759138448861e-04       4.198824937262e+02 
       9.359307428479e-04       4.468165779086e+02 
       9.996893329892e-04       4.752042479661e+02 
       1.067227798437e-03       5.050210713930e+02 
       1.138542560311e-03       5.362214848168e+02 
       1.213588348554e-03       5.687397632745e+02 
       1.292280508853e-03       6.024920814927e+02 
       1.374499282028e-03       6.373794588557e+02 
       1.460095571591e-03       6.732912848912e+02 
       1.477104874446e-03       6.803779918819e+02 
       1.548897590154e-03       7.101090859797e+02 
       1.640717759625e-03       7.477102169984e+02 
       1.735359318630e-03       7.859712286410e+02 
       1.832622229343e-03       8.247707489563e+02 
       1.932308135884e-03       8.639918036787e+02 
       2.034224275304e-03       9.035217158794e+02 
       2.138186359949e-03       9.432585348545e+02 
       2.244020529309e-03       9.831071825625e+02 
       2.351564512739e-03       1.022980818609e+03 
       2.460668158844e-03       1.062801133620e+03 
       2.571193482105e-03       1.102498130997e+03 
       2.683014360467e-03       1.142009717713e+03 
       2.796015995652e-03       1.181281165305e+03 
       2.910094225186e-03       1.220264497215e+03 
       3.025154753989e-03       1.258917851113e+03 
       3.141112355343e-03       1.297204854632e+03 
       3.257890076204e-03       1.335094040713e+03 
       3.375418470343e-03       1.372558316369e+03 
       3.493634873976e-03       1.409574487877e+03 
       3.612482732204e-03       1.446122837996e+03 
       3.731910979945e-03       1.482186747123e+03 
       3.851873477990e-03       1.517752350264e+03 
       3.972328502656e-03       1.552808223837e+03 
       4.093238286306e-03       1.587345099359e+03 
       4.214568605205e-03       1.621355603476e+03 
       4.336288410883e-03       1.654834024857e+03 
       4.458369501056e-03       1.687776108113e+03 
       4.580786226278e-03       1.720178873562e+03 
       4.703515228653e-03       1.752040460153e+03 
       4.826535209204e-03       1.783359987896e+03 
       4.949826720792e-03       1.814137436042e+03 
       5.073371983732e-03       1.844373534099e+03 
       5.197154721548e-03       1.874069522774e+03 
       5.321160014603e-03       1.903227258924e+03 
       5.445374169540e-03       1.931849412909e+03 
       5.569784602744e-03       1.959938844097e+03 
       5.694379736203e-03       1.987498782184e+03 
       5.819148904374e-03       2.014532780169e+03 
       5.944082270783e-03       2.041044680023e+03 
       6.069170753267e-03       2.067038576818e+03 
       6.194405956875e-03       2.092518784878e+03 
       6.319780113586e-03       2.117489811845e+03 
       6.445286028067e-03       2.141956329159e+03 
       6.570917028824e-03       2.165923143918e+03 
       6.696666924141e-03       2.189395175186e+03 
       6.822529962299e-03       2.212377431811e+03 
       6.948500795611e-03       2.234874995420e+03 
       7.074574447868e-03       2.256893007841e+03 
       7.200746284837e-03       2.278436659290e+03 
       7.327011987489e-03       2.299511180923e+03 
       7.453367527690e-03       2.320121836731e+03 
       7.579809146078e-03       2.340273914406e+03 
       7.706333331938e-03       2.359972717571e+03 
       7.832936804838e-03       2.379223554756e+03 
       7.959616497891e-03       2.398031729555e+03 
       8.086369542449e-03       2.416402530559e+03 
       8.213193254116e-03       2.434341217101e+03 
       8.340085119943e-03       2.451852997150e+03 
       8.467042786687e-03       2.468943551218e+03 
       8.594064050053e-03       2.485617915196e+03 
       8.721146844808e-03       2.501880691982e+03 
       8.848289235702e-03       2.517736906850e+03 
       8.975489409112e-03       2.533191507543e+03 
       9.102745665353e-03       2.548249371805e+03 
       9.230056411594e-03       2.562915311905e+03 
       9.357420155322e-03       2.577194078338e+03 
       9.484835498316e-03       2.591090363882e+03 
       9.612301131073e-03       2.604608809833e+03 
       9.739815827664e-03       2.617754010659e+03 
       9.867378440974e-03       2.630530520623e+03 
       9.994987898295e-03       2.642942856947e+03 
       1.012264319724e-02       2.654995504516e+03 
       1.025034340199e-02       2.666692916322e+03 
       1.037808763972e-02       2.678039514406e+03 
       1.050587509745e-02       2.689039687611e+03 
       1.063370501892e-02       2.699697789014e+03 
       1.076157670187e-02       2.710018131555e+03 
       1.088948949539e-02       2.720004983897e+03 
       1.101744279751e-02       2.729662565944e+03 
       1.114543605295e-02       2.738995045725e+03 
       1.127346875106e-02       2.748006537078e+03 
       1.140154042381e-02       2.756701099411e+03 
       1.152965064406e-02       2.765082738692e+03 
       1.165779902381e-02       2.773155410491e+03 
       1.178598521268e-02       2.780923023433e+03 
       1.191420889641e-02       2.788389444314e+03 
       1.204246979557e-02       2.795558502183e+03 
       1.217076766423e-02       2.802433992257e+03 
       1.229910228884e-02       2.809019680272e+03 
       1.242747348711e-02       2.815319305984e+03 
       1.255588110702e-02       2.821336584118e+03 
       1.268432502589e-02       2.827075205511e+03 
       1.281280514948e-02       2.832538823084e+03 
       1.294132141119e-02       2.837731010163e+03 
       1.306987377134e-02       2.842655206884e+03 
       1.319846221645e-02       2.847314734952e+03 
       1.332708675863e-02       2.851712903923e+03 
       1.345574743496e-02       2.855853081709e+03 
       1.358444430698e-02       2.859738673317e+03 
       1.371317746018e-02       2.863373015444e+03 
       1.384194700354e-02       2.866759535267e+03 
       1.397075306915e-02       2.869901490376e+03 
       1.409959581179e-02       2.872802145301e+03 
       1.422847540862e-02       2.875464731616e+03 
       1.435739205885e-02       2.877892446225e+03 
       1.448634598352e-02       2.880088453672e+03 
       1.461533742518e-02       2.882055887400e+03 
       1.474436664774e-02       2.883797850557e+03 
       1.477104874446e-02       2.884130164002e+03 
       1.487343393627e-02       2.885317416708e+03 
       1.500253959684e-02       2.886617630539e+03 
       1.513168395638e-02       2.887701508547e+03 
       1.526086736259e-02       2.888572039718e+03 
       1.539009018384e-02       2.889232186190e+03 
       1.551935280916e-02       2.889684883929e+03 
       1.564865564813e-02       2.889933043214e+03 
       1.577799913093e-02       2.889979549118e+03 
       1.590738370833e-02       2.889827261868e+03 
       1.603680985169e-02       2.889479016934e+03 
       1.616627805305e-02       2.888937625343e+03 
       1.629578882517e-02       2.888205873566e+03 
       1.642534270164e-02       2.887286523537e+03 
       1.655494023694e-02       2.886182312586e+03 
       1.668458200662e-02       2.884895953428e+03 
       1.681426860742e-02       2.883430134187e+03 
       1.694400065740e-02       2.881787518469e+03 
       1.707377879615e-02       2.879970745690e+03 
       1.720360368500e-02       2.877982431372e+03 
       1.733347600718e-02       2.875825167660e+03 
       1.746339646807e-02       2.873501524203e+03 
       1.759336579546e-02       2.871014048531e+03 
       1.772338473980e-02       2.868365267354e+03 
       1.785345407448e-02       2.865557687293e+03 
       1.798357459610e-02       2.862593795743e+03 
       1.811374712483e-02       2.859476061853e+03 
       1.824397250468e-02       2.856206936978e+03 
       1.837425160390e-02       2.852788855585e+03 
       1.850458531531e-02       2.849224235276e+03 
       1.863497455666e-02       2.845515477033e+03 
       1.876542027107e-02       2.841664965192e+03 
       1.889592342741e-02       2.837675066874e+03 
       1.902648502074e-02       2.833548131700e+03 
       1.915710607276e-02       2.829286490956e+03 
       1.928778763225e-02       2.824892456852e+03 
       1.941853077560e-02       2.820368321934e+03 
       1.954933660726e-02       2.815716357958e+03 
       1.968020626030e-02       2.810938815592e+03 
       1.981114089690e-02       2.806037923822e+03 
       1.994214170897e-02       2.801015889539e+03 
       2.007320991868e-02       2.795874897719e+03 
       2.020434677907e-02       2.790617111387e+03 
       2.033555357466e-02       2.785244672148e+03 
       2.046683162212e-02       2.779759700731e+03 
       2.059818227087e-02       2.774164297638e+03 
       2.072960690383e-02       2.768460544017e+03 
       2.086110693808e-02       2.762650502562e+03 
       2.099268382558e-02       2.756736218238e+03 
       2.112433905395e-02       2.750719718975e+03 
       2.125607414723e-02       2.744603016408e+03 
       2.138789066667e-02       2.738388106155e+03 
       2.151979021156e-02       2.732076968045e+03 
       2.165177442010e-02       2.725671566239e+03 
       2.178384497024e-02       2.719173849083e+03 
       2.191600358061e-02       2.712585748686e+03 
       2.204825201143e-02       2.705909180725e+03 
       2.218059206550e-02       2.699146043775e+03 
       2.231302558918e-02       2.692298218881e+03 
       2.244555447340e-02       2.685367568998e+03 
       2.257818065473e-02       2.678355938782e+03 
       2.271090611648e-02       2.671265153793e+03 
       2.284373288977e-02       2.664097020705e+03 
       2.297666305476e-02       2.656853326917e+03 
       2.310969874178e-02       2.649535840580e+03 
       2.324284213259e-02       2.642146310682e+03 
       2.337609546166e-02       2.634686467228e+03 
       2.350946101745e-02       2.627158021473e+03 
       2.364294114378e-02       2.619562666133e+03 
       2.377653824124e-02       2.611902075641e+03 
       2.391025476858e-02       2.604177906450e+03 
       2.404409324425e-02       2.596391797104e+03 
       2.417805624788e-02       2.588545368574e+03 
       2.431214642192e-02       2.580640224161e+03 
       2.444636647321e-02       2.572677949678e+03 
       2.458071917471e-02       2.564660113156e+03 
       2.471520736722e-02       2.556588264988e+03 
       2.484983396119e-02       2.548463937890e+03 
       2.498460193856e-02       2.540288646545e+03 
       2.511951435470e-02       2.532063887732e+03 
       2.525457434037e-02       2.523791140031e+03 
       2.538978510378e-02       2.515471864068e+03 
       2.552514993270e-02       2.507107502282e+03 
       2.566067219666e-02       2.498699479188e+03 
       2.579635534919e-02       2.490249201328e+03 
       2.593220293019e-02       2.481758057608e+03 
       2.606821856834e-02       2.473227419175e+03 
       2.620440598356e-02       2.464658640017e+03 
       2.634076898969e-02       2.456053057037e+03 
       2.647731149708e-02       2.447411989966e+03 
       2.661403751543e-02       2.438736741668e+03 
       2.675095115662e-02       2.430028598323e+03 
       2.688805663774e-02       2.421288829050e+03 
       2.702535828410e-02       2.412518686115e+03 
       2.716286053250e-02       2.403719404484e+03 
       2.730056793449e-02       2.394892201655e+03 
       2.743848515982e-02       2.386038277451e+03 
       2.757661700002e-02       2.377158813348e+03 
       2.771496837205e-02       2.368254972334e+03 
       2.785354432215e-02       2.359327898584e+03 
       2.799235002984e-02       2.350378716932e+03 
       2.813139081200e-02       2.341408532886e+03 
       2.827067212718e-02       2.332418432494e+03 
       2.841019958005e-02       2.323409482181e+03 
       2.854997892601e-02       2.314382729049e+03 
       2.869001607599e-02       2.305339201172e+03 
       2.883031710146e-02       2.296279907706e+03 
       2.897088823960e-02       2.287205839688e+03 
       2.911173589870e-02       2.278117970189e+03 
       2.925286666380e-02       2.269017254936e+03 
       2.939428730250e-02       2.259904632919e+03 
       2.953600477106e-02       2.250781026390e+03 
       2.967802622075e-02       2.241647341398e+03 
       2.982035900442e-02       2.232504467941e+03 
       2.996301068340e-02       2.223353279687e+03 
       3.010598903470e-02       2.214194634143e+03 
       3.024930205839e-02       2.205029371947e+03 
       3.039295798553e-02       2.195858316863e+03 
       3.053696528619e-02       2.186682275213e+03 
       3.068133267803e-02       2.177502034951e+03 
       3.082606913515e-02       2.168318365843e+03 
       3.097118389732e-02       2.159132018553e+03 
       3.111668647975e-02       2.149943724572e+03 
       3.126258668315e-02       2.140754195861e+03 
       3.140889460434e-02       2.131564124947e+03 
       3.155562064736e-02       2.122374184999e+03 
       3.170277553506e-02       2.113185029965e+03 
       3.185037032126e-02       2.103997295192e+03 
       3.199841640346e-02       2.094811597588e+03 
       3.214692553622e-02       2.085628536272e+03 
       3.229590984514e-02       2.076448692943e+03 
       3.244538184153e-02       2.067272632356e+03 
       3.259535443784e-02       2.058100902820e+03 
       3.274584096384e-02       2.048934035943e+03 
       3.289685518360e-02       2.039772547146e+03 
       3.304841131337e-02       2.030616935373e+03 
       3.320052404038e-02       2.021467682807e+03 
       3.335320854259e-02       2.012325254768e+03 
       3.350648050951e-02       2.003190098748e+03 
       3.366035616413e-02       1.994062644503e+03 
       3.381485228601e-02       1.984943302932e+03 
       3.396998623560e-02       1.975832465996e+03 
       3.412577598000e-02       1.966730505863e+03 
       3.428224012001e-02       1.957637774766e+03 
       3.443939791883e-02       1.948554604499e+03 
       3.459726933228e-02       1.939481306260e+03 
       3.475587504086e-02       1.930418170774e+03 
       3.491523648358e-02       1.921365467840e+03 
       3.507537589381e-02       1.912323447035e+03 
       3.523631633731e-02       1.903292337293e+03 
       3.539808175249e-02       1.894272347571e+03 
       3.556069699312e-02       1.885263666472e+03 
       3.572418787370e-02       1.876266463165e+03 
       3.588858121763e-02       1.867280886526e+03 
       3.605390490847e-02       1.858307065859e+03 
       3.622018794441e-02       1.849345110431e+03 
       3.638746049629e-02       1.840395109450e+03 
       3.655575396945e-02       1.831457131667e+03 
       3.672510106962e-02       1.822531225019e+03 
       3.689553587331e-02       1.813617416270e+03 
       3.706709390296e-02       1.804715710375e+03 
       3.723981220723e-02       1.795826090471e+03 
       3.741372944701e-02       1.786948516535e+03 
       3.758888598743e-02       1.778082925395e+03 
       3.776532399650e-02       1.769229229954e+03 
       3.794308755101e-02       1.760387318420e+03 
       3.812222275018e-02       1.751557053310e+03 
       3.830277783784e-02       1.742738270850e+03 
       3.848480333391e-02       1.733930779703e+03 
       3.866835217606e-02       1.725134360101e+03 
       3.885347987244e-02       1.716348761688e+03 
       3.904024466651e-02       1.707573703674e+03 
       3.922870771527e-02       1.698808872705e+03 
       3.941893328203e-02       1.690053921738e+03 
       3.961098894526e-02       1.681308469167e+03 
       3.980494582513e-02       1.672572098048e+03 
       4.000087882952e-02       1.663844355155e+03 
       4.019886692152e-02       1.655124750131e+03 
       4.039899341072e-02       1.646412755333e+03 
       4.060134627089e-02       1.637707804579e+03 
       4.080601848677e-02       1.629009291981e+03 
       4.101310843337e-02       1.620316570554e+03 
       4.122272029143e-02       1.611628950313e+03 
       4.143496450312e-02       1.602945695407e+03 
       4.164995827274e-02       1.594266020584e+03 
       4.186782611784e-02       1.585589087953e+03 
       4.208870047684e-02       1.576914002582e+03 
       4.231272238010e-02       1.568239807715e+03 
       4.254004219258e-02       1.559565479988e+03 
       4.277082043717e-02       1.550889924595e+03 
       4.300522870942e-02       1.542211970141e+03 
       4.324345069577e-02       1.533530362837e+03 
       4.348568330956e-02       1.524843760946e+03 
       4.373213796119e-02       1.516150728370e+03 
       4.398304198160e-02       1.507449727395e+03 
       4.423864022139e-02       1.498739110939e+03 
       4.449919685170e-02       1.490017113458e+03 
       4.476499739771e-02       1.481281841086e+03 
       4.503635104079e-02       1.472531259619e+03 
       4.531359323227e-02       1.463763181682e+03 
       4.559708866960e-02       1.454975251339e+03 
       4.588723469548e-02       1.446164925172e+03 
       4.618446519225e-02       1.437329450822e+03 
       4.648925505850e-02       1.428465840243e+03 
       4.680212537249e-02       1.419570836964e+03 
       4.712364936896e-02       1.410640878309e+03 
       4.745445938318e-02       1.401672049378e+03 
       4.779525494976e-02       1.392660030963e+03 
       4.814681228622e-02       1.383600040199e+03 
       4.850999544399e-02       1.374486762601e+03 
       4.888576947654e-02       1.365314272338e+03 
       4.927521605854e-02       1.356075933146e+03 
       4.967955209674e-02       1.346764268179e+03 
       5.010015200964e-02       1.337370786128e+03 
       5.053857452564e-02       1.327885753677e+03 
       5.099659507083e-02       1.318297909295e+03 
       5.147624509834e-02       1.308594113225e+03 
       5.197986006806e-02       1.298758910931e+03 
       5.251013823452e-02       1.288773957714e+03 
       5.307021295679e-02       1.278617220661e+03 
       5.366374191647e-02       1.268261879030e+03 
       5.429501740214e-02       1.257674851391e+03 
       5.496910262683e-02       1.246814829569e+03 
       5.569199970926e-02       1.235629533868e+03 
       5.647085506345e-02       1.224051750762e+03 
       5.731420664589e-02       1.211993724071e+03 
       5.823227309520e-02       1.199339408240e+03 
       5.923727403835e-02       1.185933508267e+03 
