# dimensionless total lensed [l(l+1)/2pi] C_l's
# for l=2 to 2600, i.e. number of multipoles equal to 2599
#
# -> if you prefer output in CAMB/HealPix/LensPix units/order, set 'format' to 'camb' in input file
# -> if you don't want to see such a header, set 'headers' to 'no' in input file
# -> for CMB lensing (phi), these are C_l^phi-phi for the lensing potential.
#    Remember the conversion factors:
#    C_l^dd (deflection) = l(l+1) C_l^phi-phi
#    C_l^gg (shear/convergence) = 1/4 (l(l+1))^2 C_l^phi-phi
#
# 1:l     2:TT                     3:EE                     4:TE                     5:BB                     6:phiphi                 7:TPhi                   8:Ephi               
    2       3.700164992629e-10       6.777077507030e-15       7.565671045763e-13       1.690430389243e-19       1.256374834919e-08       1.380053422367e-09      -1.796631465150e-12 
    3       3.006923959961e-10       8.961804158882e-15       8.223642187194e-13       3.379951244203e-19       7.547335303182e-09       9.144604928403e-10      -1.303019888664e-12 
    4       2.530749737083e-10       8.067930539321e-15       7.153114087071e-13       5.631328432048e-19       5.139898647643e-09       6.574887436871e-10      -8.797330536062e-13 
    5       2.203397508624e-10       5.591182284693e-15       5.472730255256e-13       8.443615469015e-19       3.762518756760e-09       4.973745738391e-10      -5.536153857442e-13 
    6       1.971714236173e-10       3.170539087599e-15       3.898240149543e-13       1.181584568128e-18       2.884940716208e-09       3.892033686332e-10      -2.924307548892e-13 
    7       1.803850888477e-10       1.606617777372e-15       2.700431408500e-13       1.574715871177e-18       2.285829795235e-09       3.120686159160e-10      -9.604674930996e-14 
    8       1.679792831929e-10       8.812920011096e-16       1.882606641831e-13       2.023693566799e-18       1.855975168889e-09       2.549991092102e-10       2.650896152941e-14 
    9       1.588104143540e-10       6.304736354683e-16       1.376090101089e-13       2.528493518771e-18       1.536162241528e-09       2.116369011722e-10       7.891806436648e-14 
   10       1.519715683751e-10       5.379962724540e-16       1.114432906361e-13       3.089142245875e-18       1.291679364210e-09       1.779292003018e-10       7.775251764157e-14 
   11       1.468101866471e-10       4.694718201393e-16       1.030549144615e-13       3.705728338194e-18       1.090625229425e-09       1.516438726777e-10       4.545185253835e-14 
   12       1.430303583173e-10       4.156557183701e-16       1.055871921141e-13       4.378411660738e-18       9.389955047775e-10       1.299087406656e-10       2.175900241133e-15 
   13       1.402671613742e-10       3.928259663318e-16       1.132297540505e-13       5.107429708453e-18       8.155315063095e-10       1.119531406911e-10      -3.663023519704e-14 
   14       1.383415498411e-10       3.942984590556e-16       1.220021738663e-13       5.893100600803e-18       7.145387034194e-10       9.731934828082e-11      -6.191167009100e-14 
   15       1.370978469101e-10       3.990207480240e-16       1.296442835176e-13       6.735822355913e-18       6.300203674965e-10       8.492561979999e-11      -7.146232837628e-14 
   16       1.364080786377e-10       3.961900312693e-16       1.354328158493e-13       7.636068257206e-18       5.590750547454e-10       7.441159783366e-11      -6.737584767600e-14 
   17       1.361493167039e-10       3.933806300749e-16       1.397579701877e-13       8.594378311676e-18       4.988636003684e-10       6.553029046321e-11      -5.449221723362e-14 
   18       1.362667709150e-10       4.073902016754e-16       1.435622330250e-13       9.611349091856e-18       4.471313168281e-10       5.800294993108e-11      -3.863266490562e-14 
   19       1.367484199965e-10       4.461011969918e-16       1.478075189454e-13       1.068760762668e-17       4.029294542226e-10       5.162071262461e-11      -2.396525154970e-14 
   20       1.374931907715e-10       5.126350138790e-16       1.534604291514e-13       1.182381565717e-17       3.644054921006e-10       4.602053569271e-11      -1.422754754494e-14 
   21       1.384741965930e-10       6.039714351617e-16       1.607986879540e-13       1.302062001405e-17       3.308358236697e-10       4.111708780496e-11      -1.011434082337e-14 
   22       1.396415240506e-10       7.140786421935e-16       1.697077637195e-13       1.427865953418e-17       3.013029284779e-10       3.683749624916e-11      -1.081134311625e-14 
   23       1.409929960624e-10       8.407073360901e-16       1.796380856741e-13       1.559851532757e-17       2.753555035547e-10       3.312787703139e-11      -1.462065946082e-14 
   24       1.425086209340e-10       9.822332996441e-16       1.897761466519e-13       1.698071751854e-17       2.523571740709e-10       2.988837095888e-11      -1.923469386382e-14 
   25       1.441751336630e-10       1.136706480890e-15       1.994813167412e-13       1.842569826014e-17       2.319730528525e-10       2.704682413529e-11      -2.300766566017e-14 
   26       1.459607272918e-10       1.302301540400e-15       2.081477971984e-13       1.993379868757e-17       2.137562543350e-10       2.451265703428e-11      -2.456372476185e-14 
   27       1.478611303539e-10       1.480178926881e-15       2.154878527823e-13       2.150523461790e-17       1.974540192770e-10       2.225382264911e-11      -2.381785225732e-14 
   28       1.498665961223e-10       1.672727992312e-15       2.213672777153e-13       2.314010235059e-17       1.827588247774e-10       2.023989538842e-11      -2.123142789602e-14 
   29       1.519796049309e-10       1.882553660366e-15       2.259192874837e-13       2.483836904743e-17       1.695699851946e-10       1.845748363386e-11      -1.751472091171e-14 
   30       1.541888087059e-10       2.112723231099e-15       2.294334654642e-13       2.659986331044e-17       1.577134443602e-10       1.687904417850e-11      -1.364856230760e-14 
   31       1.564687184823e-10       2.366272570259e-15       2.322385881135e-13       2.842428360836e-17       1.469086066576e-10       1.546179734969e-11      -1.066940308697e-14 
   32       1.588200887810e-10       2.644060739381e-15       2.344424098451e-13       3.031125503989e-17       1.370842949103e-10       1.419273945180e-11      -8.856217144968e-15 
   33       1.612413267395e-10       2.946088911905e-15       2.360984015903e-13       3.226027633552e-17       1.281602908592e-10       1.305758659825e-11      -8.241247267705e-15 
   34       1.637223097146e-10       3.272192226030e-15       2.372204957031e-13       3.427073347958e-17       1.199971590300e-10       1.203387346803e-11      -8.740687458563e-15 
   35       1.662650133080e-10       3.622616432437e-15       2.375990507570e-13       3.634203248873e-17       1.125406122893e-10       1.111224101863e-11      -9.894377344867e-15 
   36       1.688680262339e-10       3.997616429878e-15       2.369147803581e-13       3.847350128784e-17       1.057159676862e-10       1.028102302552e-11      -1.101840697840e-14 
   37       1.715240946225e-10       4.397456276482e-15       2.348507666986e-13       4.066442110861e-17       9.941736519932e-11       9.524589684926e-12      -1.144330135945e-14 
   38       1.742339960649e-10       4.822969648943e-15       2.313265771067e-13       4.291427471191e-17       9.362117268153e-11       8.839540698310e-12      -1.113603480801e-14 
   39       1.769958271988e-10       5.275180538995e-15       2.263400083303e-13       4.522257688451e-17       8.830333461610e-11       8.223005709807e-12      -1.028090869923e-14 
   40       1.798003712157e-10       5.755156341363e-15       2.199058595410e-13       4.758880823402e-17       8.340520309964e-11       7.667842244072e-12      -9.117889179555e-15 
   41       1.826356962067e-10       6.263905253177e-15       2.120552674998e-13       5.001250124607e-17       7.885253993538e-11       7.164603014648e-12      -7.906512849325e-15 
   42       1.855044751454e-10       6.802022499201e-15       2.028307071440e-13       5.249353155850e-17       7.462711356860e-11       6.709085080797e-12      -6.794321273531e-15 
   43       1.884110966191e-10       7.369933004206e-15       1.922912852172e-13       5.503192191979e-17       7.071340243906e-11       6.296624148449e-12      -5.912004733173e-15 
   44       1.913564901386e-10       7.967981749805e-15       1.805154053506e-13       5.762777059409e-17       6.707719258184e-11       5.919773782157e-12      -5.410650921912e-15 
   45       1.943396631961e-10       8.596507156811e-15       1.675693284976e-13       6.028129202287e-17       6.367677767167e-11       5.570376038478e-12      -5.411979377488e-15 
   46       1.973636906419e-10       9.256098725595e-15       1.533992677891e-13       6.299293870042e-17       6.050400051357e-11       5.246992995237e-12      -5.838843363292e-15 
   47       2.004309165910e-10       9.947408240021e-15       1.379087508962e-13       6.576332627725e-17       5.755299206320e-11       4.949349432549e-12      -6.535830261791e-15 
   48       2.035409833159e-10       1.067107796538e-14       1.209874308258e-13       6.859321022994e-17       5.480785817433e-11       4.676179396879e-12      -7.313838183233e-15 
   49       2.066905877409e-10       1.142774034269e-14       1.025102263157e-13       7.148349404391e-17       5.224194551287e-11       4.425152915837e-12      -7.948193594798e-15 
   50       2.098749801535e-10       1.221793936636e-14       8.236292269815e-14       7.443517041108e-17       4.982541371858e-11       4.193498309903e-12      -8.239515919514e-15 
   51       2.130935048581e-10       1.304187026752e-14       6.052916104996e-14       7.744910702230e-17       4.755207806161e-11       3.980238288993e-12      -8.220155105026e-15 
   52       2.163451425566e-10       1.389956864225e-14       3.702557538340e-14       8.052621677509e-17       4.541858400903e-11       3.784434141066e-12      -8.000535405885e-15 
   53       2.196267418906e-10       1.479097869583e-14       1.187777234798e-14       8.366752458794e-17       4.341640272901e-11       3.604503595029e-12      -7.712350959165e-15 
   54       2.229328579231e-10       1.571594925158e-14      -1.487928317630e-14       8.687417243082e-17       4.153148788714e-11       3.438180269514e-12      -7.509636212193e-15 
   55       2.262580557801e-10       1.667434960108e-14      -4.321690234510e-14       9.014724952159e-17       3.974829801183e-11       3.283069292424e-12      -7.530593932923e-15 
   56       2.296048617515e-10       1.766645990041e-14      -7.316500665711e-14       9.348722199332e-17       3.806381998199e-11       3.138568693546e-12      -7.769522409630e-15 
   57       2.329775045020e-10       1.869267076581e-14      -1.047721192154e-13       9.689437035536e-17       3.647642812642e-11       3.004354298450e-12      -8.174947156381e-15 
   58       2.363795589190e-10       1.975337259241e-14      -1.380907172985e-13       1.003689501717e-16       3.498165452961e-11       2.879808430422e-12      -8.685627285047e-15 
   59       2.398138806393e-10       2.084895623221e-14      -1.731774709176e-13       1.039111902796e-16       3.357201591509e-11       2.764002586668e-12      -9.230097007678e-15 
   60       2.432825405756e-10       2.197981367199e-14      -2.100934813737e-13       1.075212910085e-16       3.223684052875e-11       2.655680114520e-12      -9.726207138889e-15 
   61       2.467869357170e-10       2.314620627353e-14      -2.488887981156e-13       1.111992934220e-16       3.096510418875e-11       2.553558883356e-12      -1.009927090648e-14 
   62       2.503282987137e-10       2.434783340075e-14      -2.895513684756e-13       1.149446567767e-16       2.975507395775e-11       2.457357881270e-12      -1.034229819715e-14 
   63       2.539071870106e-10       2.558416772867e-14      -3.320470003292e-13       1.187565826270e-16       2.860653174903e-11       2.366971356347e-12      -1.046852945187e-14 
   64       2.575232579726e-10       2.685457568256e-14      -3.763338175248e-13       1.226341296755e-16       2.751788007045e-11       2.282162126038e-12      -1.049415360021e-14 
   65       2.611752090040e-10       2.815831391374e-14      -4.223619996029e-13       1.265762078991e-16       2.648606438636e-11       2.202554406588e-12      -1.043843986343e-14 
   66       2.648607176680e-10       2.949452577537e-14      -4.700735215164e-13       1.305815726761e-16       2.550649547954e-11       2.127626642464e-12      -1.032386955741e-14 
   67       2.685763818066e-10       3.086223779824e-14      -5.194018933495e-13       1.346488189120e-16       2.457297181317e-11       2.056704335778e-12      -1.017626789570e-14 
   68       2.723189359099e-10       3.226050527412e-14      -5.702868374013e-13       1.387765643736e-16       2.367928181857e-11       1.989122143602e-12      -1.001961376854e-14 
   69       2.760893202796e-10       3.368889113833e-14      -6.227223546715e-13       1.429640559571e-16       2.282456131116e-11       1.924764338776e-12      -9.858953232899e-15 
   70       2.798893326018e-10       3.514707823621e-14      -6.767179750804e-13       1.472106762789e-16       2.200888714339e-11       1.863621482327e-12      -9.694244714972e-15 
   71       2.837203978990e-10       3.663472908515e-14      -7.322848014214e-13       1.515157643214e-16       2.123165927663e-11       1.805628054590e-12      -9.525370469413e-15 
   72       2.875835412901e-10       3.815148616388e-14      -7.894356311103e-13       1.558786143986e-16       2.049156610797e-11       1.750659613742e-12      -9.352132269225e-15 
   73       2.914793607509e-10       3.969697220181e-14      -8.481850779346e-13       1.602984751218e-16       1.978654979703e-11       1.698529954327e-12      -9.174247095617e-15 
   74       2.954079998741e-10       4.127079046823e-14      -9.085496938030e-13       1.647745483647e-16       1.911377159274e-11       1.648988265790e-12      -8.991342827868e-15 
   75       2.993691206298e-10       4.287252506165e-14      -9.705480904944e-13       1.693059882291e-16       1.846957716014e-11       1.601716291000e-12      -8.802953933196e-15 
   76       3.033622763910e-10       4.450165949041e-14      -1.034190670450e-12       1.738921880996e-16       1.785038388764e-11       1.556402048952e-12      -8.609095129231e-15 
   77       3.073881697553e-10       4.615731463425e-14      -1.099446388080e-12       1.785337045258e-16       1.725560625623e-11       1.512982804573e-12      -8.412112670162e-15 
   78       3.114475756698e-10       4.783846330233e-14      -1.166270120255e-12       1.832315007173e-16       1.668520340968e-11       1.471441449100e-12      -8.215164389355e-15 
   79       3.155409427896e-10       4.954400633897e-14      -1.234612429696e-12       1.879866781956e-16       1.613878898681e-11       1.431732615647e-12      -8.021679095417e-15 
   80       3.196683744464e-10       5.127277123747e-14      -1.304419473653e-12       1.928004816666e-16       1.561561535429e-11       1.393781407739e-12      -7.835364113859e-15 
   81       3.238296096161e-10       5.302351075383e-14      -1.375632912578e-12       1.976743038938e-16       1.511455783937e-11       1.357482127858e-12      -7.660212828760e-15 
   82       3.280240038870e-10       5.479490152058e-14      -1.448189818797e-12       2.026096905712e-16       1.463409896260e-11       1.322697005977e-12      -7.500512224423e-15 
   83       3.322505104279e-10       5.658554266055e-14      -1.522022585187e-12       2.076083451964e-16       1.417231267064e-11       1.289254928103e-12      -7.360850427038e-15 
   84       3.365081029093e-10       5.839402744189e-14      -1.597066043485e-12       2.126719283118e-16       1.372732512596e-11       1.256990457901e-12      -7.244970426480e-15 
   85       3.407971665137e-10       6.021917492818e-14      -1.673280375137e-12       2.178014063130e-16       1.329881938333e-11       1.225871119376e-12      -7.152096383155e-15 
   86       3.451183037034e-10       6.205983436803e-14      -1.750631848799e-12       2.229976031191e-16       1.288675240816e-11       1.195888981909e-12      -7.080009296273e-15 
   87       3.494719013372e-10       6.391481541192e-14      -1.829085977807e-12       2.282613976024e-16       1.249089305432e-11       1.167021657768e-12      -7.026134999232e-15 
   88       3.538581190656e-10       6.578288795359e-14      -1.908607550020e-12       2.335937250054e-16       1.211081430628e-11       1.139231707839e-12      -6.987532309354e-15 
   89       3.582768777272e-10       6.766278197139e-14      -1.989160657662e-12       2.389955783577e-16       1.174588552121e-11       1.112466047361e-12      -6.960881177612e-15 
   90       3.627278477443e-10       6.955318736966e-14      -2.070708727171e-12       2.444680098933e-16       1.139526467110e-11       1.086655351659e-12      -6.942470838363e-15 
   91       3.672104375184e-10       7.145275382009e-14      -2.153214549042e-12       2.500121324673e-16       1.105789058485e-11       1.061713461880e-12      -6.928187959073e-15 
   92       3.717237818268e-10       7.336009060307e-14      -2.236640307670e-12       2.556291209731e-16       1.073247519044e-11       1.037536790726e-12      -6.913504790056e-15 
   93       3.762670475114e-10       7.527377720675e-14      -2.320945512554e-12       2.613198888264e-16       1.041780582995e-11       1.014029985955e-12      -6.894383681556e-15 
   94       3.808404283455e-10       7.719239729216e-14      -2.406080371154e-12       2.670840586821e-16       1.011372106668e-11       9.911886268743e-13      -6.870171990150e-15 
   95       3.854442790362e-10       7.911450956691e-14      -2.491991469851e-12       2.729208388128e-16       9.820267978797e-12       9.690279245405e-13      -6.841122682428e-15 
   96       3.900788041118e-10       8.103863747188e-14      -2.578623784805e-12       2.788293312457e-16       9.537401708536e-12       9.475573415078e-13      -6.807517480894e-15 
   97       3.947440506723e-10       8.296326917019e-14      -2.665920682992e-12       2.848085287194e-16       9.264981960567e-12       9.267803579981e-13      -6.769667592527e-15 
   98       3.994399011415e-10       8.488685753633e-14      -2.753823923241e-12       2.908573116404e-16       9.002769500458e-12       9.066942380710e-13      -6.727914437331e-15 
   99       4.041660660173e-10       8.680782014511e-14      -2.842273657269e-12       2.969744450401e-16       8.750422653102e-12       8.872897957943e-13      -6.682630376893e-15 
  100       4.089220766238e-10       8.872453926074e-14      -2.931208430721e-12       3.031585755313e-16       8.507493801152e-12       8.685511614141e-13      -6.634219442936e-15 
  101       4.137072778620e-10       9.063536182582e-14      -3.020565184204e-12       3.094082282648e-16       8.273425883457e-12       8.504555475252e-13      -6.583118065875e-15 
  102       4.185208209613e-10       9.253859945043e-14      -3.110279254328e-12       3.157218038864e-16       8.047548893498e-12       8.329730152407e-13      -6.529795803371e-15 
  103       4.233616562307e-10       9.443252840114e-14      -3.200284374738e-12       3.220975754936e-16       7.829076377817e-12       8.160662403630e-13      -6.474756068885e-15 
  104       4.282287759158e-10       9.631543683620e-14      -3.290514110980e-12       3.285341824627e-16       7.617281286184e-12       7.996995136744e-13      -6.418476290172e-15 
  105       4.331219957444e-10       9.818577380185e-14      -3.380906383610e-12       3.350321944594e-16       7.412058117790e-12       7.838676301050e-13      -6.361217609175e-15 
  106       4.380412659338e-10       1.000420204365e-13      -3.471399560866e-12       3.415927540135e-16       7.213430538399e-12       7.685704843125e-13      -6.303190713918e-15 
  107       4.429864260674e-10       1.018826450240e-13      -3.561931095997e-12       3.482171009023e-16       7.021377297558e-12       7.538040542894e-13      -6.244614175185e-15 
