# Matter power spectrum P(k) at redshift z=0
# for k=9.36021e-06 to 1.4771 h/Mpc,
# number of wavenumbers equal to 602
#    1:k (h/Mpc)              2:P (Mpc/h)^3        
       9.360214775815e-06       6.182693088624e+01 
       2.165689702548e-05       1.391732333453e+02 
       3.399149725940e-05       2.152251491553e+02 
       4.639425014970e-05       2.907492595664e+02 
       5.889583440943e-05       3.661709169028e+02 
       7.152762217480e-05       4.418044928958e+02 
       8.432193553588e-05       5.179159802416e+02 
       9.731231335206e-05       5.955525098034e+02 
       1.105337915130e-04       6.734547953606e+02 
       1.240231998350e-04       7.525448861455e+02 
       1.378194788010e-04       8.330543286164e+02 
       1.519640193326e-04       9.152201745315e+02 
       1.665010287089e-04       9.992880426775e+02 
       1.814779255575e-04       1.085514619011e+03 
       1.969457665046e-04       1.174170285739e+03 
       2.129597065013e-04       1.266298294509e+03 
       2.295794939465e-04       1.363284750999e+03 
       2.468700003923e-04       1.461098741542e+03 
       2.649017826823e-04       1.562624123644e+03 
       2.837516726630e-04       1.672251815773e+03 
       3.035033858875e-04       1.781422619751e+03 
       3.242481357696e-04       1.900984120542e+03 
       3.460852331631e-04       2.023152264706e+03 
       3.691226431146e-04       2.150845713732e+03 
       3.934774604050e-04       2.286417960836e+03 
       4.192762534753e-04       2.428975295706e+03 
       4.466552127610e-04       2.583027240165e+03 
       4.757600251800e-04       2.743175764253e+03 
       5.067453830726e-04       2.913703573319e+03 
       5.397740257879e-04       3.093805100791e+03 
       5.750152089126e-04       3.284341798057e+03 
       6.126425044364e-04       3.488034597225e+03 
       6.528308600658e-04       3.703843610795e+03 
       6.957528921004e-04       3.932699234625e+03 
       7.415744562587e-04       4.174998906605e+03 
       7.904496327369e-04       4.431341692609e+03 
       8.425153672811e-04       4.702846393760e+03 
       8.978861133328e-04       4.989997511289e+03 
       9.566488992861e-04       5.291368488526e+03 
       1.018859275697e-03       5.607207631600e+03 
       1.084538561297e-03       5.937421830560e+03 
       1.153672698417e-03       6.281320108789e+03 
       1.226212860425e-03       6.638139298570e+03 
       1.302077755718e-03       7.006706636474e+03 
       1.381157383778e-03       7.386125490356e+03 
       1.463317855639e-03       7.775357142821e+03 
       1.477104874446e-03       7.840179356362e+03 
       1.548406817625e-03       8.172276240202e+03 
       1.636259018045e-03       8.577004679991e+03 
       1.726701619294e-03       8.987324324189e+03 
       1.819558958996e-03       9.401845954398e+03 
       1.914656578010e-03       9.819579209824e+03 
       2.011824439267e-03       1.023922912059e+04 
       2.110899346398e-03       1.065976273960e+04 
       2.211726629957e-03       1.108042494870e+04 
       2.314161202804e-03       1.150055129185e+04 
       2.418068099511e-03       1.191868735942e+04 
       2.523322613280e-03       1.233433982354e+04 
       2.629810133544e-03       1.274693118936e+04 
       2.737425772439e-03       1.315580454329e+04 
       2.846073852119e-03       1.356074634424e+04 
       2.955667309255e-03       1.396096060393e+04 
       3.066127059291e-03       1.435654824855e+04 
       3.177381351395e-03       1.474685919584e+04 
       3.289365135755e-03       1.513168048814e+04 
       3.402019457566e-03       1.551080401744e+04 
       3.515290886597e-03       1.588405940061e+04 
       3.629130987177e-03       1.625126285134e+04 
       3.743495830578e-03       1.661235929672e+04 
       3.858345549754e-03       1.696721480296e+04 
       3.973643935131e-03       1.731574101837e+04 
       4.089358069257e-03       1.765790573399e+04 
       4.205457997685e-03       1.799374115525e+04 
       4.321916433240e-03       1.832307533485e+04 
       4.438708490763e-03       1.864609043955e+04 
       4.555811449480e-03       1.896258033014e+04 
       4.673204540299e-03       1.927265670440e+04 
       4.790868755497e-03       1.957646292159e+04 
       4.908786678464e-03       1.986518247190e+04 
       5.026942331370e-03       2.016356094886e+04 
       5.145321038826e-03       2.043960878450e+04 
       5.263909305793e-03       2.072277198838e+04 
       5.382694708193e-03       2.098809627035e+04 
       5.501665794813e-03       2.125868545946e+04 
       5.620811999276e-03       2.152375045088e+04 
       5.740123560956e-03       2.177088521945e+04 
       5.859591453888e-03       2.202414478160e+04 
       5.979207322764e-03       2.225788775896e+04 
       6.098963425279e-03       2.250649070189e+04 
       6.218852580121e-03       2.273740031112e+04 
       6.338868120016e-03       2.295620535639e+04 
       6.459003849269e-03       2.317721114064e+04 
       6.579254005353e-03       2.339389567278e+04 
       6.699613224103e-03       2.360548166373e+04 
       6.820076508143e-03       2.380814537596e+04 
       6.940639198221e-03       2.401061066210e+04 
       7.061296947155e-03       2.419261910555e+04 
       7.182045696113e-03       2.438665537966e+04 
       7.302881653016e-03       2.456660310137e+04 
       7.423801272829e-03       2.473696589300e+04 
       7.544801239577e-03       2.492243991942e+04 
       7.665878449909e-03       2.507668575445e+04 
       7.787029998052e-03       2.524178421400e+04 
       7.908253162044e-03       2.540501343248e+04 
       8.029545391110e-03       2.556378269647e+04 
       8.150904294076e-03       2.571547775075e+04 
       8.272327628732e-03       2.585413061118e+04 
       8.393813292057e-03       2.599843574025e+04 
       8.515359311216e-03       2.613542916252e+04 
       8.636963835282e-03       2.626403915544e+04 
       8.758625127593e-03       2.638155159184e+04 
       8.880341558716e-03       2.651403406493e+04 
       9.002111599942e-03       2.663123723489e+04 
       9.123933817281e-03       2.674278259778e+04 
       9.245806865911e-03       2.685769816434e+04 
       9.367729485037e-03       2.695685989811e+04 
       9.489700493139e-03       2.706653494987e+04 
       9.611718783566e-03       2.715832635070e+04 
       9.733783320452e-03       2.724741152617e+04 
       9.855893134925e-03       2.734202770045e+04 
       9.978047321599e-03       2.743672990528e+04 
       1.010024503530e-02       2.752120834316e+04 
       1.022248548805e-02       2.759934219482e+04 
       1.034476794624e-02       2.766952796664e+04 
       1.046709172799e-02       2.775043785828e+04 
       1.058945620075e-02       2.781820857486e+04 
       1.071186077903e-02       2.788525204934e+04 
       1.083430492224e-02       2.794578384720e+04 
       1.095678813279e-02       2.799986706018e+04 
       1.107930995423e-02       2.806117158931e+04 
       1.120186996955e-02       2.811622767582e+04 
       1.132446779959e-02       2.816185795738e+04 
       1.144710310159e-02       2.821072280077e+04 
       1.156977556778e-02       2.825122140871e+04 
       1.169248492413e-02       2.829232668926e+04 
       1.181523092915e-02       2.832419022901e+04 
       1.193801337276e-02       2.836523392306e+04 
       1.206083207530e-02       2.839798589826e+04 
       1.218368688656e-02       2.842432647511e+04 
       1.230657768486e-02       2.845029950567e+04 
       1.242950437626e-02       2.847464544481e+04 
       1.255246689380e-02       2.848953039729e+04 
       1.267546519675e-02       2.851222762964e+04 
       1.279849926999e-02       2.852028115825e+04 
       1.292156912340e-02       2.854088744153e+04 
       1.304467479128e-02       2.854912598779e+04 
       1.316781633187e-02       2.855308770688e+04 
       1.329099382686e-02       2.856195125137e+04 
       1.341420738094e-02       2.855810517391e+04 
       1.353745712147e-02       2.856003335114e+04 
       1.366074319804e-02       2.855547297477e+04 
       1.378406578222e-02       2.855604569796e+04 
       1.390742506721e-02       2.855012984948e+04 
       1.403082126765e-02       2.853854418515e+04 
       1.415425461933e-02       2.852994072564e+04 
       1.427772537900e-02       2.851197952615e+04 
       1.440123382424e-02       2.849841423975e+04 
       1.452478025327e-02       2.848096068914e+04 
       1.464836498483e-02       2.845952721687e+04 
       1.477104874446e-02       2.843672781941e+04 
       1.477198835811e-02       2.843628729976e+04 
       1.489565073266e-02       2.841384371568e+04 
       1.501935248833e-02       2.838881547771e+04 
       1.514309402524e-02       2.835550343013e+04 
       1.526687576381e-02       2.832915209354e+04 
       1.539069814470e-02       2.829520317969e+04 
       1.551456162893e-02       2.826035841831e+04 
       1.563846669785e-02       2.822619171823e+04 
       1.576241385325e-02       2.818544260215e+04 
       1.588640361746e-02       2.814902853832e+04 
       1.601043653341e-02       2.810570854611e+04 
       1.613451316482e-02       2.806648626113e+04 
       1.625863409628e-02       2.801946371629e+04 
       1.638279993343e-02       2.797168139815e+04 
       1.650701130318e-02       2.792843829566e+04 
       1.663126885383e-02       2.787866436293e+04 
       1.675557325532e-02       2.782810551462e+04 
       1.687992519947e-02       2.777417018423e+04 
       1.700432540018e-02       2.772096028206e+04 
       1.712877459374e-02       2.766641074859e+04 
       1.725327353905e-02       2.760608164370e+04 
       1.737782301797e-02       2.754677801111e+04 
       1.750242383559e-02       2.749050286155e+04 
       1.762707682055e-02       2.742680010278e+04 
       1.775178282542e-02       2.736753899290e+04 
       1.787654272701e-02       2.730295755020e+04 
       1.800135742680e-02       2.723667022348e+04 
       1.812622785127e-02       2.717138006789e+04 
       1.825115495235e-02       2.709972404150e+04 
       1.837613970784e-02       2.703258060914e+04 
       1.850118312182e-02       2.696571225975e+04 
       1.862628622517e-02       2.689354966339e+04 
       1.875145007600e-02       2.682146769255e+04 
       1.887667576015e-02       2.674657934378e+04 
       1.900196439172e-02       2.667390270582e+04 
       1.912731711362e-02       2.659751405516e+04 
       1.925273509806e-02       2.652185089169e+04 
       1.937821954721e-02       2.644304870629e+04 
       1.950377169370e-02       2.636548668466e+04 
       1.962939280131e-02       2.628549768370e+04 
       1.975508416554e-02       2.620462717182e+04 
       1.988084711433e-02       2.612127542345e+04 
       2.000668300866e-02       2.604175916102e+04 
       2.013259324330e-02       2.595700281263e+04 
       2.025857924753e-02       2.587241230336e+04 
       2.038464248586e-02       2.578676485745e+04 
       2.051078445880e-02       2.570253387780e+04 
       2.063700670367e-02       2.561438688496e+04 
       2.076331079541e-02       2.552650547408e+04 
       2.088969834743e-02       2.544105785062e+04 
       2.101617101245e-02       2.535106906362e+04 
       2.114273048344e-02       2.526394905014e+04 
       2.126937849453e-02       2.517336583465e+04 
       2.139611682195e-02       2.507971525479e+04 
       2.152294728503e-02       2.498882431417e+04 
       2.164987174723e-02       2.489909886311e+04 
       2.177689211716e-02       2.480427870752e+04 
       2.190401034969e-02       2.471226045580e+04 
       2.203122844704e-02       2.461812823874e+04 
       2.215854845995e-02       2.452469654874e+04 
       2.228597248886e-02       2.442949923123e+04 
       2.241350268513e-02       2.433416136151e+04 
       2.254114125232e-02       2.423763680425e+04 
       2.266889044748e-02       2.414131651950e+04 
       2.279675258251e-02       2.404252750755e+04 
       2.292473002551e-02       2.394673427409e+04 
       2.305282520226e-02       2.384757781543e+04 
       2.318104059770e-02       2.374984182986e+04 
       2.330937875741e-02       2.365269299911e+04 
       2.343784228923e-02       2.355214604476e+04 
       2.356643386486e-02       2.345400797742e+04 
       2.369515622158e-02       2.335350752449e+04 
       2.382401216394e-02       2.325254092674e+04 
       2.395300456560e-02       2.315447776089e+04 
       2.408213637112e-02       2.305151082253e+04 
       2.421141059796e-02       2.295100731210e+04 
       2.434083033839e-02       2.285105522455e+04 
       2.447039876158e-02       2.275004439286e+04 
       2.460011911567e-02       2.264777540829e+04 
       2.472999473001e-02       2.254548983832e+04 
       2.486002901739e-02       2.244249359396e+04 
       2.499022547639e-02       2.234176514647e+04 
       2.512058769380e-02       2.223983481730e+04 
       2.525111934712e-02       2.213553605488e+04 
       2.538182420719e-02       2.203269373253e+04 
       2.551270614082e-02       2.193143780389e+04 
       2.564376911360e-02       2.182836828231e+04 
       2.577501719279e-02       2.172403658785e+04 
       2.590645455030e-02       2.162170187751e+04 
       2.603808546577e-02       2.151663739636e+04 
       2.616991432978e-02       2.141405984010e+04 
       2.630194564719e-02       2.130993471909e+04 
       2.643418404056e-02       2.120803607280e+04 
       2.656663425375e-02       2.110356846372e+04 
       2.669930115562e-02       2.100100787107e+04 
       2.683218974387e-02       2.089728364648e+04 
       2.696530514904e-02       2.079373862977e+04 
       2.709865263869e-02       2.068959162946e+04 
       2.723223762166e-02       2.058625185544e+04 
       2.736606565257e-02       2.048200107001e+04 
       2.750014243649e-02       2.037838808679e+04 
       2.763447383376e-02       2.027464598458e+04 
       2.776906586503e-02       2.017075499072e+04 
       2.790392471646e-02       2.006816372415e+04 
       2.803905674522e-02       1.996557134186e+04 
       2.817446848513e-02       1.986108867102e+04 
       2.831016665254e-02       1.975926719084e+04 
       2.844615815250e-02       1.965603562988e+04 
       2.858245008517e-02       1.955326170354e+04 
       2.871904975247e-02       1.944994070035e+04 
       2.885596466504e-02       1.934725992846e+04 
       2.899320254953e-02       1.924398489719e+04 
       2.913077135612e-02       1.914287825119e+04 
       2.926867926644e-02       1.904064065699e+04 
       2.940693470183e-02       1.893820887952e+04 
       2.954554633195e-02       1.883625019598e+04 
       2.968452308377e-02       1.873399877562e+04 
       2.982387415099e-02       1.863328047368e+04 
       2.996360900386e-02       1.853200816599e+04 
       3.010373739951e-02       1.843024539134e+04 
       3.024426939268e-02       1.832954578654e+04 
       3.038521534702e-02       1.822845324234e+04 
       3.052658594689e-02       1.812759192619e+04 
       3.066839220973e-02       1.802778630788e+04 
       3.081064549907e-02       1.792806209731e+04 
       3.095335753808e-02       1.782720536649e+04 
       3.109654042388e-02       1.772802565259e+04 
       3.124020664252e-02       1.762801444765e+04 
       3.138436908473e-02       1.752903778282e+04 
       3.152904106244e-02       1.743060282360e+04 
       3.167423632616e-02       1.733184630867e+04 
       3.181996908330e-02       1.723357641880e+04 
       3.196625401736e-02       1.713569175448e+04 
       3.211310630824e-02       1.703786774151e+04 
       3.226054165356e-02       1.694031494585e+04 
       3.240857629112e-02       1.684215494906e+04 
       3.255722702269e-02       1.674587108901e+04 
       3.270651123898e-02       1.664899086350e+04 
       3.285644694609e-02       1.655253315705e+04 
       3.300705279342e-02       1.645617272379e+04 
       3.315834810316e-02       1.636049468485e+04 
       3.331035290155e-02       1.626495797193e+04 
       3.346308795183e-02       1.616953361832e+04 
       3.361657478928e-02       1.607451346771e+04 
       3.377083575825e-02       1.597964106076e+04 
       3.392589405148e-02       1.588527246505e+04 
       3.408177375176e-02       1.579118481463e+04 
       3.423849987627e-02       1.569743905981e+04 
       3.439609842360e-02       1.560341416152e+04 
       3.455459642377e-02       1.551047985102e+04 
       3.471402199150e-02       1.541769493604e+04 
       3.487440438289e-02       1.532544724764e+04 
       3.503577405588e-02       1.523326121935e+04 
       3.519816273467e-02       1.514083690515e+04 
       3.536160347855e-02       1.504948235477e+04 
       3.552613075543e-02       1.495846417883e+04 
       3.569178052040e-02       1.486714528494e+04 
       3.585859029994e-02       1.477638447275e+04 
       3.602659928198e-02       1.468635771677e+04 
       3.619584841253e-02       1.459585191207e+04 
       3.636638049945e-02       1.450662357344e+04 
       3.653824032376e-02       1.441712097239e+04 
       3.671147475953e-02       1.432807459349e+04 
       3.688613290276e-02       1.423890488352e+04 
       3.706226621036e-02       1.415078444836e+04 
       3.723992865007e-02       1.406216346619e+04 
       3.741917686227e-02       1.397447859076e+04 
       3.760007033503e-02       1.388695755656e+04 
       3.778267159353e-02       1.379960870522e+04 
       3.796704640533e-02       1.371306733432e+04 
       3.815326400317e-02       1.362597050000e+04 
       3.834139732694e-02       1.354004147135e+04 
       3.853152328703e-02       1.345351809879e+04 
       3.872372305111e-02       1.336811452901e+04 
       3.891808235705e-02       1.328252391907e+04 
       3.911469185479e-02       1.319751813284e+04 
       3.931364748036e-02       1.311226681217e+04 
       3.951505086573e-02       1.302783221842e+04 
       3.971900978866e-02       1.294356533301e+04 
       3.992563866728e-02       1.285895241220e+04 
       4.013505910472e-02       1.277566126748e+04 
       4.034740048988e-02       1.269198144994e+04 
       4.056280066150e-02       1.260845959986e+04 
       4.078140664337e-02       1.252570232863e+04 
       4.100337546007e-02       1.244248548386e+04 
       4.122887504377e-02       1.236017899254e+04 
       4.145808524444e-02       1.227790390927e+04 
       4.169119895765e-02       1.219561341935e+04 
       4.192842338658e-02       1.211378291115e+04 
       4.216998145741e-02       1.203176588356e+04 
       4.241611341074e-02       1.195060748632e+04 
       4.266707859521e-02       1.186935607563e+04 
       4.292315749470e-02       1.178825964014e+04 
       4.318465402533e-02       1.170733413733e+04 
       4.345189814604e-02       1.162658472705e+04 
       4.372524883389e-02       1.154571998327e+04 
       4.400509748584e-02       1.146550756996e+04 
       4.429187182033e-02       1.138507106551e+04 
       4.458604036718e-02       1.130499836509e+04 
       4.488811765238e-02       1.122484281710e+04 
       4.519867020688e-02       1.114486809557e+04 
       4.551832355663e-02       1.106489143151e+04 
       4.584777038575e-02       1.098518062671e+04 
       4.618778010830e-02       1.090539292804e+04 
       4.653921013903e-02       1.082557631021e+04 
       4.690301922217e-02       1.074570989002e+04 
       4.728028326485e-02       1.066593778457e+04 
       4.767221423247e-02       1.058595307673e+04 
       4.808018280410e-02       1.050596984136e+04 
       4.850574566613e-02       1.042588944122e+04 
       4.895067855084e-02       1.034532653839e+04 
       4.941701641842e-02       1.026482517939e+04 
       4.990710254953e-02       1.018381220974e+04 
       5.042364877770e-02       1.010270605650e+04 
       5.096980965998e-02       1.002059048161e+04 
       5.154927406186e-02       9.937892895830e+03 
       5.216637839428e-02       9.854395971887e+03 
       5.282624649403e-02       9.769346651619e+03 
       5.353496165907e-02       9.682919714834e+03 
       5.429977613208e-02       9.594324450244e+03 
       5.512936133239e-02       9.502915839163e+03 
