# dimensionless total lensed [l(l+1)/2pi] C_l's
# for l=2 to 2600, i.e. number of multipoles equal to 2599
#
# -> if you prefer output in CAMB/HealPix/LensPix units/order, set 'format' to 'camb' in input file
# -> if you don't want to see such a header, set 'headers' to 'no' in input file
# -> for CMB lensing (phi), these are C_l^phi-phi for the lensing potential.
#    Remember the conversion factors:
#    C_l^dd (deflection) = l(l+1) C_l^phi-phi
#    C_l^gg (shear/convergence) = 1/4 (l(l+1))^2 C_l^phi-phi
#
# 1:l     2:TT                     3:EE                     4:TE                     5:BB                     6:phiphi                 7:TPhi                   8:Ephi               
    2       1.530287583208e-10       2.696148027351e-15       3.736225878471e-13       4.528784649597e-19       1.210849680218e-08       4.853336266933e-10      -1.525415018190e-12 
    3       1.428084410632e-10       4.032130928031e-15       4.297423894142e-13       9.058152623568e-19       7.541504976297e-09       3.528824218442e-10      -1.193410887126e-12 
    4       1.340082751833e-10       4.216595800150e-15       4.202906637544e-13       1.509822650540e-18       5.319830734675e-09       2.711526373554e-10      -8.391967174054e-13 
    5       1.276214211792e-10       3.556086139785e-15       3.818576034947e-13       2.264980823574e-18       4.015670618826e-09       2.165941513662e-10      -5.395898562544e-13 
    6       1.232074606715e-10       2.626544215729e-15       3.341998642927e-13       3.171391756596e-18       3.163694241277e-09       1.779803822763e-10      -3.107874805178e-13 
    7       1.201351993087e-10       1.859193330415e-15       2.900172122969e-13       4.229179907721e-18       2.569861573660e-09       1.493974227585e-10      -1.496956599639e-13 
    8       1.180562218960e-10       1.402981218809e-15       2.566529072624e-13       5.438492643575e-18       2.136655781133e-09       1.274382179272e-10      -4.583035317683e-14 
    9       1.166725798537e-10       1.203200510161e-15       2.362289634754e-13       6.799500205146e-18       1.809450972597e-09       1.100782399864e-10       1.113057904126e-14 
   10       1.158192210518e-10       1.143788944279e-15       2.273772250285e-13       8.312395033616e-18       1.556289946890e-09       9.614455030445e-11       3.124612278327e-14 
   11       1.154041603392e-10       1.146212145464e-15       2.276557372952e-13       9.977390290894e-18       1.280139000922e-09       8.405399134928e-11       2.488190746125e-14 
   12       1.153112907064e-10       1.192214505443e-15       2.346069092537e-13       1.179471743652e-17       1.121590034981e-09       7.458777709627e-11       3.344856275874e-15 
   13       1.154085231436e-10       1.297499713518e-15       2.459131882508e-13       1.376462276037e-17       9.912353590543e-10       6.649305764087e-11      -2.316163549563e-14 
   14       1.157249080152e-10       1.478192132384e-15       2.594360110135e-13       1.588736281746e-17       8.824114611538e-10       5.978596043325e-11      -4.740166867469e-14 
   15       1.161933083760e-10       1.735050920922e-15       2.735172719921e-13       1.816319876563e-17       7.905144206945e-10       5.397634413156e-11      -6.478514790805e-14 
   16       1.167559956750e-10       2.056979316862e-15       2.871957646553e-13       2.059238966529e-17       7.125368396474e-10       4.898140753787e-11      -7.345101792497e-14 
   17       1.174823464772e-10       2.432030204893e-15       2.998394626756e-13       2.317518486122e-17       6.453047119102e-10       4.460736533891e-11      -7.402143862892e-14 
   18       1.182594839056e-10       2.854142411643e-15       3.111801537067e-13       2.591181620715e-17       5.868787941484e-10       4.066483020350e-11      -6.860270588219e-14 
   19       1.190907244349e-10       3.323129220816e-15       3.213360910685e-13       2.880248629793e-17       5.364507737636e-10       3.717493055814e-11      -5.967335685533e-14 
   20       1.199784562897e-10       3.839213529400e-15       3.305393154976e-13       3.184736550835e-17       4.919273258956e-10       3.412964583136e-11      -5.028162752584e-14 
   21       1.209288761719e-10       4.400385634878e-15       3.389736584215e-13       3.504657564825e-17       4.526306173354e-10       3.147001138333e-11      -4.223292377359e-14 
   22       1.219161534404e-10       5.003221380424e-15       3.467865457263e-13       3.840018770519e-17       4.176996459598e-10       2.907725657214e-11      -3.686166594564e-14 
   23       1.229451898855e-10       5.644746162780e-15       3.540184436254e-13       4.190820897634e-17       3.866739975796e-10       2.692179590929e-11      -3.439098535425e-14 
   24       1.240076496798e-10       6.322134497172e-15       3.606235324318e-13       4.557058067324e-17       3.588348890360e-10       2.497801036045e-11      -3.446797510103e-14 
   25       1.251055736333e-10       7.034696265560e-15       3.664465341690e-13       4.938717080384e-17       3.338460948371e-10       2.323579499292e-11      -3.639551602368e-14 
   26       1.262273721376e-10       7.782398651346e-15       3.712507426113e-13       5.335777026294e-17       3.112482568655e-10       2.167069970100e-11      -3.915485621045e-14 
   27       1.273696252793e-10       8.564498584715e-15       3.748071255022e-13       5.748209160631e-17       2.907910320465e-10       2.025436783770e-11      -4.164200425846e-14 
   28       1.285218347461e-10       9.380194881929e-15       3.768871389545e-13       6.175976769205e-17       2.721498798737e-10       1.894901646690e-11      -4.276869718463e-14 
   29       1.296938243910e-10       1.022937419208e-14       3.774308892056e-13       6.619037201626e-17       2.552322239072e-10       1.775040785713e-11      -4.240902656138e-14 
   30       1.308893083534e-10       1.111235460763e-14       3.764291177681e-13       7.077339709191e-17       2.398496266856e-10       1.665475294226e-11      -4.080089894340e-14 
   31       1.321005775121e-10       1.202965692754e-14       3.738862050309e-13       7.550826100244e-17       2.256823973542e-10       1.564950380136e-11      -3.829365829083e-14 
   32       1.333310152842e-10       1.298152725337e-14       3.698637144131e-13       8.039436764472e-17       2.126629303071e-10       1.473106540037e-11      -3.532297455931e-14 
   33       1.345781346461e-10       1.396828558099e-14       3.644532095782e-13       8.543106331961e-17       2.007096440143e-10       1.389189060015e-11      -3.244327182946e-14 
   34       1.358324098684e-10       1.499026965678e-14       3.577485688408e-13       9.061764249723e-17       1.896658133326e-10       1.311887030261e-11      -3.020847346275e-14 
   35       1.370987886052e-10       1.604712081262e-14       3.497877805674e-13       9.595343216656e-17       1.794757960500e-10       1.240695571086e-11      -2.870181906157e-14 
   36       1.383809029877e-10       1.713826626964e-14       3.405892377817e-13       1.014377350879e-16       1.700553222190e-10       1.174919700716e-11      -2.784077306469e-14 
   37       1.396774195385e-10       1.826312356247e-14       3.301580582050e-13       1.070698425889e-16       1.612794232297e-10       1.113576430829e-11      -2.749745156572e-14 
   38       1.409920471145e-10       1.942113804967e-14       3.184596956368e-13       1.128491564948e-16       1.531263578530e-10       1.056478432738e-11      -2.750005406093e-14 
   39       1.423255862910e-10       2.061176798791e-14       3.054346610578e-13       1.187751099371e-16       1.455723289209e-10       1.003445199198e-11      -2.762550771240e-14 
   40       1.436724196709e-10       2.183448257296e-14       2.910030778162e-13       1.248471378981e-16       1.385478263449e-10       9.539772529774e-12      -2.759428464553e-14 
   41       1.450241048666e-10       2.308876567270e-14       2.750866278158e-13       1.310647137248e-16       1.319622743849e-10       9.074453794114e-12      -2.714604722073e-14 
   42       1.463831207409e-10       2.437411324101e-14       2.576876872382e-13       1.374274669067e-16       1.257972486109e-10       8.637993810666e-12      -2.630515282501e-14 
   43       1.477525033589e-10       2.569004573743e-14       2.388326579629e-13       1.439351078818e-16       1.200368648345e-10       8.230431567409e-12      -2.519531149465e-14 
   44       1.491316390176e-10       2.703611671477e-14       2.185499795210e-13       1.505874021231e-16       1.146397496623e-10       7.850248259383e-12      -2.396937700769e-14 
   45       1.505183286234e-10       2.841186561336e-14       1.968699713452e-13       1.573841767916e-16       1.095539942803e-10       7.495052718817e-12      -2.278122430523e-14 
   46       1.519165599916e-10       2.981664477254e-14       1.738250400419e-13       1.643253315560e-16       1.047721402443e-10       7.164186979190e-12      -2.168726154559e-14 
   47       1.533304504933e-10       3.124975119962e-14       1.494490022556e-13       1.714108393192e-16       1.002891722205e-10       6.856679570585e-12      -2.071842953481e-14 
   48       1.547618139285e-10       3.271047847350e-14       1.237766393026e-13       1.786407495898e-16       9.608592891467e-11       6.570417997706e-12      -1.990752290102e-14 
   49       1.562099422035e-10       3.419811984167e-14       9.684339344155e-14       1.860151934700e-16       9.212804733883e-11       6.302066273957e-12      -1.928920789020e-14 
   50       1.576729709319e-10       3.571197536016e-14       6.867745496144e-14       1.935343425522e-16       8.837643340718e-11       6.047991726687e-12      -1.888550900826e-14 
   51       1.591529197380e-10       3.725136841301e-14       3.927419596241e-14       2.011982608830e-16       8.482447361426e-11       5.807533311521e-12      -1.865758338686e-14 
   52       1.606516427030e-10       3.881563903017e-14       8.614271899217e-15       2.090070214386e-16       8.146909914662e-11       5.580477897618e-12      -1.854088687534e-14 
   53       1.621692236435e-10       4.040414344586e-14      -2.333002187427e-14       2.169607514557e-16       7.829964122177e-11       5.366094392629e-12      -1.845791086971e-14 
   54       1.637038323265e-10       4.201625738578e-14      -5.659541191338e-14       2.250596352504e-16       7.529731777051e-11       5.163098771900e-12      -1.831751628938e-14 
   55       1.652530996919e-10       4.365133154227e-14      -9.121495397880e-14       2.333038330983e-16       7.244104063860e-11       4.970055934969e-12      -1.803872205748e-14 
   56       1.668189729828e-10       4.530853751596e-14      -1.271747463593e-13       2.416932078166e-16       6.972770252355e-11       4.786782293720e-12      -1.763051662581e-14 
   57       1.684038148830e-10       4.698698936067e-14      -1.644476224184e-13       2.502275351966e-16       6.715603063218e-11       4.613230363128e-12      -1.713070675402e-14 
   58       1.700089074213e-10       4.868578943586e-14      -2.030057013871e-13       2.589065815500e-16       6.472044645898e-11       4.449064900683e-12      -1.658348062633e-14 
   59       1.716343673682e-10       5.040402983117e-14      -2.428205298667e-13       2.677301032572e-16       6.241079872243e-11       4.293644954833e-12      -1.603969460110e-14 
   60       1.732790616336e-10       5.214079379083e-14      -2.838632233312e-13       2.766978463161e-16       6.021209630126e-11       4.146005913424e-12      -1.555715996045e-14 
   61       1.749415998557e-10       5.389514649091e-14      -3.261058984364e-13       2.858095028069e-16       5.810872144327e-11       4.005133796744e-12      -1.518668748276e-14 
   62       1.766237639182e-10       5.566610172941e-14      -3.695260255122e-13       2.950645698875e-16       5.609877867251e-11       3.870900694115e-12      -1.492591200801e-14 
   63       1.783277015989e-10       5.745265025308e-14      -4.141033085788e-13       3.044624582030e-16       5.418250739667e-11       3.743308396284e-12      -1.475556497383e-14 
   64       1.800548678803e-10       5.925377081004e-14      -4.598186595952e-13       3.140025303940e-16       5.235796340714e-11       3.622206171908e-12      -1.465264013003e-14 
   65       1.818059745249e-10       6.106843123641e-14      -5.066543809176e-13       3.236840992781e-16       5.062089397094e-11       3.507282088689e-12      -1.459022839473e-14 
   66       1.835809396510e-10       6.289558954291e-14      -5.545943477587e-13       3.335064260310e-16       4.896461292272e-11       3.398054334519e-12      -1.453735271041e-14 
   67       1.853788373082e-10       6.473419500155e-14      -6.036241906465e-13       3.434687183686e-16       4.737987575665e-11       3.293862538615e-12      -1.445880290004e-14 
   68       1.871986215630e-10       6.658313717834e-14      -6.537281857101e-13       3.535702353130e-16       4.585738050041e-11       3.194042484105e-12      -1.432296141265e-14 
   69       1.890415818404e-10       6.844107861027e-14      -7.048787859895e-13       3.638106302073e-16       4.439613798417e-11       3.098510754407e-12      -1.412749105729e-14 
   70       1.909092968006e-10       7.030659002061e-14      -7.570452869246e-13       3.741896742574e-16       4.299658101091e-11       3.007283504821e-12      -1.387857952359e-14 
   71       1.928028737825e-10       7.217819913268e-14      -8.101970273408e-13       3.847071569875e-16       4.165803192190e-11       2.920299635762e-12      -1.358344755271e-14 
   72       1.947229181873e-10       7.405439042519e-14      -8.643034877096e-13       3.953628871478e-16       4.037864484423e-11       2.837416804217e-12      -1.325038816398e-14 
   73       1.966695028632e-10       7.593360488758e-14      -9.193343884086e-13       4.061566936220e-16       3.915534793832e-11       2.758407435207e-12      -1.288880588158e-14 
   74       1.986421374891e-10       7.781423977535e-14      -9.752597879817e-13       4.170884263345e-16       3.798378564537e-11       2.682954733244e-12      -1.250925596118e-14 
   75       2.006397379587e-10       7.969464836537e-14      -1.032050181399e-12       4.281579571578e-16       3.685826093493e-11       2.610648693787e-12      -1.212348361665e-14 
   76       2.026612100734e-10       8.157320066963e-14      -1.089674963060e-12       4.393652996009e-16       3.577317107307e-11       2.541080445775e-12      -1.174238713784e-14 
   77       2.047073911804e-10       8.344847889894e-14      -1.148097275020e-12       4.507109910643e-16       3.472774485752e-11       2.474153957569e-12      -1.136939171525e-14 
   78       2.067794086237e-10       8.531911736406e-14      -1.207278393465e-12       4.621957822636e-16       3.372206832908e-11       2.409824189805e-12      -1.100593295344e-14 
   79       2.088780791186e-10       8.718374566847e-14      -1.267179344311e-12       4.738205279214e-16       3.275564119931e-11       2.348001866634e-12      -1.065342249394e-14 
   80       2.110038907328e-10       8.904098971377e-14      -1.327760967929e-12       4.855861901108e-16       3.182734972389e-11       2.288551503543e-12      -1.031324466964e-14 
   81       2.131569848671e-10       9.088947270493e-14      -1.388983983874e-12       4.974938415982e-16       3.093543957602e-11       2.231289435170e-12      -9.986753159163e-15 
   82       2.153371382366e-10       9.272781615569e-14      -1.450809055612e-12       5.095446691869e-16       3.007748871969e-11       2.175981843122e-12      -9.675267641212e-15 
   83       2.175437448519e-10       9.455464089388e-14      -1.513196855250e-12       5.217399770595e-16       2.925038028312e-11       2.122342783791e-12      -9.380070448958e-15 
   84       2.197761743203e-10       9.636852969562e-14      -1.576107170288e-12       5.340810577553e-16       2.845107453744e-11       2.070109680019e-12      -9.102113781468e-15 
   85       2.220349544695e-10       9.816790586861e-14      -1.639495911973e-12       5.465687732013e-16       2.767913129689e-11       2.019288495482e-12      -8.841092897290e-15 
   86       2.243207526523e-10       9.995113629018e-14      -1.703317727361e-12       5.592039100310e-16       2.693455788800e-11       1.969945778105e-12      -8.596212427580e-15 
   87       2.266340053360e-10       1.017165683439e-13      -1.767526961107e-12       5.719873068782e-16       2.621703372909e-11       1.922134149598e-12      -8.366454069051e-15 
   88       2.289749064076e-10       1.034625302800e-13      -1.832077704095e-12       5.849198554943e-16       2.552589663391e-11       1.875891635189e-12      -8.150568373758e-15 
   89       2.313433954800e-10       1.051873315757e-13      -1.896923842060e-12       5.980025018680e-16       2.486012911535e-11       1.831240993354e-12      -7.947066538877e-15 
   90       2.337391461972e-10       1.068892632961e-13      -1.962019104220e-12       6.112362473426e-16       2.421834468916e-11       1.788189045545e-12      -7.754212196493e-15 
   91       2.361615545404e-10       1.085665984539e-13      -2.027317111899e-12       6.246221497355e-16       2.359877417764e-11       1.746726005923e-12      -7.570013203378e-15 
   92       2.386097271333e-10       1.102175923704e-13      -2.092771427161e-12       6.381613244560e-16       2.299925201331e-11       1.706824811087e-12      -7.392213430775e-15 
   93       2.410827997519e-10       1.118405278865e-13      -2.158334882680e-12       6.518547898737e-16       2.241774017704e-11       1.668446993534e-12      -7.218735197776e-15 
   94       2.435809730498e-10       1.134338579908e-13      -2.223957350455e-12       6.657029743905e-16       2.185401990107e-11       1.631562768392e-12      -7.049100521955e-15 
   95       2.461046117094e-10       1.149960854091e-13      -2.289587725860e-12       6.797061369551e-16       2.130823025906e-11       1.596132742528e-12      -6.883209439681e-15 
   96       2.486539210516e-10       1.165257206279e-13      -2.355174654733e-12       6.938645152018e-16       2.078034697043e-11       1.562101067333e-12      -6.720906411441e-15 
   97       2.512289398748e-10       1.180212828707e-13      -2.420666572137e-12       7.081783244313e-16       2.027017608408e-11       1.529394858274e-12      -6.561978297533e-15 
   98       2.538295332933e-10       1.194813010741e-13      -2.486011741125e-12       7.226477565906e-16       1.977734766214e-11       1.497923614451e-12      -6.406152333761e-15 
   99       2.564553855749e-10       1.209043148635e-13      -2.551158291496e-12       7.372729792542e-16       1.930130946365e-11       1.467578638154e-12      -6.253094107128e-15 
  100       2.591059929802e-10       1.222888755298e-13      -2.616054258562e-12       7.520541346041e-16       1.884132062830e-11       1.438232454411e-12      -6.102405531529e-15 
  101       2.617806566003e-10       1.236335470051e-13      -2.680647621905e-12       7.669913384107e-16       1.839644536014e-11       1.409738230551e-12      -5.953622823442e-15 
  102       2.644784751953e-10       1.249369068389e-13      -2.744886344141e-12       7.820846790131e-16       1.796554661130e-11       1.381929195752e-12      -5.806214477627e-15 
  103       2.671983380330e-10       1.261975471743e-13      -2.808718409679e-12       7.973342162995e-16       1.754727976571e-11       1.354618060600e-12      -5.659579242815e-15 
  104       2.699391798906e-10       1.274140996488e-13      -2.872091373701e-12       8.127401989720e-16       1.714040374987e-11       1.327641917877e-12      -5.513240987438e-15 
  105       2.727008007173e-10       1.285853118268e-13      -2.934950856213e-12       8.283037519603e-16       1.674477583271e-11       1.301005102937e-12      -5.367467636202e-15 
  106       2.754831438608e-10       1.297099829599e-13      -2.997241915881e-12       8.440262803992e-16       1.636048005894e-11       1.274754639408e-12      -5.222732458162e-15 
  107       2.782860395614e-10       1.307869422078e-13      -3.058909554618e-12       8.599092609995e-16       1.598751902822e-11       1.248936401594e-12      -5.079524780523e-15 
