# Matter power spectrum P(k) at redshift z=0
# for k=9.36021e-06 to 1.4771 h/Mpc,
# number of wavenumbers equal to 602
#    1:k (h/Mpc)              2:P (Mpc/h)^3        
       9.360214775815e-06       6.686196710778e+01 
       2.165689702548e-05       1.505233563024e+02 
       3.399149725940e-05       2.328226125788e+02 
       4.639425014970e-05       3.146099638737e+02 
       5.889583440943e-05       3.963674215653e+02 
       7.152762217480e-05       4.784582912516e+02 
       8.432193553588e-05       5.611953806632e+02 
       9.731231335206e-05       6.426851956618e+02 
       1.105337915130e-04       7.272581814547e+02 
       1.240231998350e-04       8.133135465201e+02 
       1.378194788010e-04       9.011361247625e+02 
       1.519640193326e-04       9.910214527719e+02 
       1.665010287089e-04       1.083279879122e+03 
       1.814779255575e-04       1.178240240285e+03 
       1.969457665046e-04       1.276253582617e+03 
       2.129597065013e-04       1.375647007917e+03 
       2.295794939465e-04       1.473948565389e+03 
       2.468700003923e-04       1.583324455546e+03 
       2.649017826823e-04       1.697420723192e+03 
       2.837516726630e-04       1.805848969109e+03 
       3.035033858875e-04       1.933534537246e+03 
       3.242481357696e-04       2.052801056566e+03 
       3.460852331631e-04       2.186719110928e+03 
       3.691226431146e-04       2.329445060050e+03 
       3.934774604050e-04       2.476751710575e+03 
       4.192762534753e-04       2.633433424734e+03 
       4.466552127610e-04       2.789857536223e+03 
       4.757600251800e-04       2.963198952020e+03 
       5.067453830726e-04       3.144581683964e+03 
       5.397740257879e-04       3.339094158594e+03 
       5.750152089126e-04       3.547236577034e+03 
       6.126425044364e-04       3.764493197320e+03 
       6.528308600658e-04       3.996485762460e+03 
       6.957528921004e-04       4.243218359517e+03 
       7.415744562587e-04       4.505769326295e+03 
       7.904496327369e-04       4.784388582811e+03 
       8.425153672811e-04       5.077383131619e+03 
       8.978861133328e-04       5.384205156044e+03 
       9.566488992861e-04       5.708760648760e+03 
       1.018859275697e-03       6.049765867987e+03 
       1.084538561297e-03       6.405882468187e+03 
       1.153672698417e-03       6.776673676036e+03 
       1.226212860425e-03       7.161181359461e+03 
       1.302077755718e-03       7.558975652181e+03 
       1.381157383778e-03       7.968276906889e+03 
       1.463317855639e-03       8.387282580377e+03 
       1.477104874446e-03       8.456965216744e+03 
       1.548406817625e-03       8.816874109482e+03 
       1.636259018045e-03       9.251798739608e+03 
       1.726701619294e-03       9.693117605081e+03 
       1.819558958996e-03       1.013978367996e+04 
       1.914656578010e-03       1.058975950199e+04 
       2.011824439267e-03       1.104223020266e+04 
       2.110899346398e-03       1.149593895629e+04 
       2.211726629957e-03       1.194916421091e+04 
       2.314161202804e-03       1.240032671520e+04 
       2.418068099511e-03       1.285034453061e+04 
       2.523322613280e-03       1.329781736815e+04 
       2.629810133544e-03       1.374197580885e+04 
       2.737425772439e-03       1.418245957434e+04 
       2.846073852119e-03       1.461796481212e+04 
       2.955667309255e-03       1.504907915228e+04 
       3.066127059291e-03       1.547417638991e+04 
       3.177381351395e-03       1.589381335647e+04 
       3.289365135755e-03       1.630761606885e+04 
       3.402019457566e-03       1.671530856553e+04 
       3.515290886597e-03       1.711657600121e+04 
       3.629130987177e-03       1.751141672850e+04 
       3.743495830578e-03       1.789947253079e+04 
       3.858345549754e-03       1.828081856097e+04 
       3.973643935131e-03       1.865539609108e+04 
       4.089358069257e-03       1.902311590340e+04 
       4.205457997685e-03       1.938366132485e+04 
       4.321916433240e-03       1.973754180953e+04 
       4.438708490763e-03       2.008412868132e+04 
       4.555811449480e-03       2.042389651310e+04 
       4.673204540299e-03       2.075675975012e+04 
       4.790868755497e-03       2.108281765523e+04 
       4.908786678464e-03       2.142816563990e+04 
       5.026942331370e-03       2.172063892356e+04 
       5.145321038826e-03       2.205007290611e+04 
       5.263909305793e-03       2.233654665039e+04 
       5.382694708193e-03       2.264785208315e+04 
       5.501665794813e-03       2.292189429943e+04 
       5.620811999276e-03       2.318791323204e+04 
       5.740123560956e-03       2.347995677456e+04 
       5.859591453888e-03       2.373263366640e+04 
       5.979207322764e-03       2.401617172501e+04 
       6.098963425279e-03       2.423750543372e+04 
       6.218852580121e-03       2.448504204535e+04 
       6.338868120016e-03       2.474378930892e+04 
       6.459003849269e-03       2.497558361244e+04 
       6.579254005353e-03       2.519807551083e+04 
       6.699613224103e-03       2.541375805876e+04 
       6.820076508143e-03       2.563320079091e+04 
       6.940639198221e-03       2.583325477952e+04 
       7.061296947155e-03       2.606859740349e+04 
       7.182045696113e-03       2.625204012308e+04 
       7.302881653016e-03       2.645430711703e+04 
       7.423801272829e-03       2.666346919444e+04 
       7.544801239577e-03       2.681292909118e+04 
       7.665878449909e-03       2.702847586540e+04 
       7.787029998052e-03       2.719659701133e+04 
       7.908253162044e-03       2.735165299648e+04 
       8.029545391110e-03       2.750096143656e+04 
       8.150904294076e-03       2.765208911770e+04 
       8.272327628732e-03       2.782135168610e+04 
       8.393813292057e-03       2.795819479735e+04 
       8.515359311216e-03       2.809837122260e+04 
       8.636963835282e-03       2.824446188511e+04 
       8.758625127593e-03       2.840447129823e+04 
       8.880341558716e-03       2.850785208839e+04 
       9.002111599942e-03       2.863686557235e+04 
       9.123933817281e-03       2.876561105330e+04 
       9.245806865911e-03       2.886995635058e+04 
       9.367729485037e-03       2.900178646722e+04 
       9.489700493139e-03       2.909015979425e+04 
       9.611718783566e-03       2.921215385311e+04 
       9.733783320452e-03       2.932700218238e+04 
       9.855893134925e-03       2.941281521581e+04 
       9.978047321599e-03       2.948427552149e+04 
       1.010024503530e-02       2.956928233410e+04 
       1.022248548805e-02       2.965806211660e+04 
       1.034476794624e-02       2.975470673199e+04 
       1.046709172799e-02       2.980900800681e+04 
       1.058945620075e-02       2.988594202866e+04 
       1.071186077903e-02       2.995177654601e+04 
       1.083430492224e-02       3.002260137589e+04 
       1.095678813279e-02       3.009838939258e+04 
       1.107930995423e-02       3.014220870613e+04 
       1.120186996955e-02       3.019083855613e+04 
       1.132446779959e-02       3.025298492866e+04 
       1.144710310159e-02       3.029451930262e+04 
       1.156977556778e-02       3.034699328508e+04 
       1.169248492413e-02       3.038656034164e+04 
       1.181523092915e-02       3.043958115376e+04 
       1.193801337276e-02       3.045690174448e+04 
       1.206083207530e-02       3.048559121310e+04 
       1.218368688656e-02       3.052089284598e+04 
       1.230657768486e-02       3.054650186222e+04 
       1.242950437626e-02       3.056595949059e+04 
       1.255246689380e-02       3.060075294288e+04 
       1.267546519675e-02       3.060418725634e+04 
       1.279849926999e-02       3.063716585845e+04 
       1.292156912340e-02       3.062649418450e+04 
       1.304467479128e-02       3.063942814349e+04 
       1.316781633187e-02       3.065434722562e+04 
       1.329099382686e-02       3.064673605845e+04 
       1.341420738094e-02       3.066398554390e+04 
       1.353745712147e-02       3.065666123256e+04 
       1.366074319804e-02       3.065784016483e+04 
       1.378406578222e-02       3.063630017587e+04 
       1.390742506721e-02       3.062358960776e+04 
       1.403082126765e-02       3.061757738991e+04 
       1.415425461933e-02       3.059507765954e+04 
       1.427772537900e-02       3.058955184635e+04 
       1.440123382424e-02       3.056402012672e+04 
       1.452478025327e-02       3.054091844004e+04 
       1.464836498483e-02       3.052063299798e+04 
       1.477104874446e-02       3.049696178326e+04 
       1.477198835811e-02       3.049746656347e+04 
       1.489565073266e-02       3.046451112404e+04 
       1.501935248833e-02       3.043102030072e+04 
       1.514309402524e-02       3.041245964718e+04 
       1.526687576381e-02       3.036783668345e+04 
       1.539069814470e-02       3.033653447376e+04 
       1.551456162893e-02       3.030059615778e+04 
       1.563846669785e-02       3.025599175350e+04 
       1.576241385325e-02       3.022220678092e+04 
       1.588640361746e-02       3.017020992210e+04 
       1.601043653341e-02       3.013024977963e+04 
       1.613451316482e-02       3.007281101615e+04 
       1.625863409628e-02       3.003000367957e+04 
       1.638279993343e-02       2.998303478478e+04 
       1.650701130318e-02       2.991771220165e+04 
       1.663126885383e-02       2.986399783904e+04 
       1.675557325532e-02       2.980650713503e+04 
       1.687992519947e-02       2.975227331003e+04 
       1.700432540018e-02       2.969044988031e+04 
       1.712877459374e-02       2.962666406445e+04 
       1.725327353905e-02       2.957298766174e+04 
       1.737782301797e-02       2.951114082028e+04 
       1.750242383559e-02       2.943600086510e+04 
       1.762707682055e-02       2.937559021424e+04 
       1.775178282542e-02       2.929823997267e+04 
       1.787654272701e-02       2.923023478027e+04 
       1.800135742680e-02       2.916195542531e+04 
       1.812622785127e-02       2.908601907125e+04 
       1.825115495235e-02       2.902295921456e+04 
       1.837613970784e-02       2.894308067718e+04 
       1.850118312182e-02       2.885802199075e+04 
       1.862628622517e-02       2.878279609573e+04 
       1.875145007600e-02       2.870306841031e+04 
       1.887667576015e-02       2.862671965487e+04 
       1.900196439172e-02       2.854033315893e+04 
       1.912731711362e-02       2.845992292781e+04 
       1.925273509806e-02       2.837367441254e+04 
       1.937821954721e-02       2.829201320479e+04 
       1.950377169370e-02       2.820333203372e+04 
       1.962939280131e-02       2.811752340695e+04 
       1.975508416554e-02       2.803055706469e+04 
       1.988084711433e-02       2.794673407310e+04 
       2.000668300866e-02       2.784925210829e+04 
       2.013259324330e-02       2.776255867818e+04 
       2.025857924753e-02       2.767221150868e+04 
       2.038464248586e-02       2.758151240175e+04 
       2.051078445880e-02       2.748402917822e+04 
       2.063700670367e-02       2.739407550889e+04 
       2.076331079541e-02       2.730050430468e+04 
       2.088969834743e-02       2.719765711992e+04 
       2.101617101245e-02       2.710418427934e+04 
       2.114273048344e-02       2.700041400296e+04 
       2.126937849453e-02       2.690333918579e+04 
       2.139611682195e-02       2.681197698660e+04 
       2.152294728503e-02       2.671080283814e+04 
       2.164987174723e-02       2.660415370088e+04 
       2.177689211716e-02       2.650884757306e+04 
       2.190401034969e-02       2.640389126867e+04 
       2.203122844704e-02       2.630243106972e+04 
       2.215854845995e-02       2.619702017948e+04 
       2.228597248886e-02       2.609439036295e+04 
       2.241350268513e-02       2.599016072696e+04 
       2.254114125232e-02       2.588726378669e+04 
       2.266889044748e-02       2.578205133386e+04 
       2.279675258251e-02       2.568172056933e+04 
       2.292473002551e-02       2.557170287458e+04 
       2.305282520226e-02       2.546911541020e+04 
       2.318104059770e-02       2.536119874738e+04 
       2.330937875741e-02       2.525024077159e+04 
       2.343784228923e-02       2.514692289985e+04 
       2.356643386486e-02       2.503589580483e+04 
       2.369515622158e-02       2.492984041635e+04 
       2.382401216394e-02       2.482383847710e+04 
       2.395300456560e-02       2.470893888774e+04 
       2.408213637112e-02       2.460600869944e+04 
       2.421141059796e-02       2.449548490603e+04 
       2.434083033839e-02       2.438250159236e+04 
       2.447039876158e-02       2.427139476903e+04 
       2.460011911567e-02       2.416278721321e+04 
       2.472999473001e-02       2.405339520410e+04 
       2.486002901739e-02       2.394512303747e+04 
       2.499022547639e-02       2.383009165160e+04 
       2.512058769380e-02       2.371761391249e+04 
       2.525111934712e-02       2.361082899540e+04 
       2.538182420719e-02       2.349961577395e+04 
       2.551270614082e-02       2.338366399114e+04 
       2.564376911360e-02       2.327206444926e+04 
       2.577501719279e-02       2.316344066881e+04 
       2.590645455030e-02       2.304910683695e+04 
       2.603808546577e-02       2.294173897397e+04 
       2.616991432978e-02       2.282747327592e+04 
       2.630194564719e-02       2.271707300235e+04 
       2.643418404056e-02       2.260059196529e+04 
       2.656663425375e-02       2.249079038049e+04 
       2.669930115562e-02       2.237585034078e+04 
       2.683218974387e-02       2.226391212499e+04 
       2.696530514904e-02       2.215148670921e+04 
       2.709865263869e-02       2.204069408627e+04 
       2.723223762166e-02       2.192769408017e+04 
       2.736606565257e-02       2.181746154534e+04 
       2.750014243649e-02       2.170555452678e+04 
       2.763447383376e-02       2.159416925361e+04 
       2.776906586503e-02       2.148338899181e+04 
       2.790392471646e-02       2.136942584829e+04 
       2.803905674522e-02       2.125574704303e+04 
       2.817446848513e-02       2.114738321876e+04 
       2.831016665254e-02       2.103233991410e+04 
       2.844615815250e-02       2.092142326978e+04 
       2.858245008517e-02       2.080970151891e+04 
       2.871904975247e-02       2.069988910315e+04 
       2.885596466504e-02       2.058883905474e+04 
       2.899320254953e-02       2.047989249216e+04 
       2.913077135612e-02       2.036575303814e+04 
       2.926867926644e-02       2.025515508556e+04 
       2.940693470183e-02       2.014568714229e+04 
       2.954554633195e-02       2.003557984447e+04 
       2.968452308377e-02       1.992688642649e+04 
       2.982387415099e-02       1.981483277728e+04 
       2.996360900386e-02       1.970493562880e+04 
       3.010373739951e-02       1.959707582581e+04 
       3.024426939268e-02       1.948713865116e+04 
       3.038521534702e-02       1.937901625446e+04 
       3.052658594689e-02       1.927107028416e+04 
       3.066839220973e-02       1.916115788386e+04 
       3.081064549907e-02       1.905185436023e+04 
       3.095335753808e-02       1.894640801266e+04 
       3.109654042388e-02       1.883742219290e+04 
       3.124020664252e-02       1.873150755062e+04 
       3.138436908473e-02       1.862378608485e+04 
       3.152904106244e-02       1.851556447083e+04 
       3.167423632616e-02       1.840913904604e+04 
       3.181996908330e-02       1.830239095053e+04 
       3.196625401736e-02       1.819560715879e+04 
       3.211310630824e-02       1.808965586908e+04 
       3.226054165356e-02       1.798400409479e+04 
       3.240857629112e-02       1.788096302516e+04 
       3.255722702269e-02       1.777403127293e+04 
       3.270651123898e-02       1.766970273314e+04 
       3.285644694609e-02       1.756532773878e+04 
       3.300705279342e-02       1.746176731175e+04 
       3.315834810316e-02       1.735749078389e+04 
       3.331035290155e-02       1.725391976423e+04 
       3.346308795183e-02       1.715117124773e+04 
       3.361657478928e-02       1.704845357949e+04 
       3.377083575825e-02       1.694645955321e+04 
       3.392589405148e-02       1.684427455804e+04 
       3.408177375176e-02       1.674247235442e+04 
       3.423849987627e-02       1.664090915522e+04 
       3.439609842360e-02       1.654121992914e+04 
       3.455459642377e-02       1.643981004739e+04 
       3.471402199150e-02       1.633915795005e+04 
       3.487440438289e-02       1.623824235202e+04 
       3.503577405588e-02       1.613832365354e+04 
       3.519816273467e-02       1.604018720867e+04 
       3.536160347855e-02       1.594040090291e+04 
       3.552613075543e-02       1.584089201313e+04 
       3.569178052040e-02       1.574333226886e+04 
       3.585859029994e-02       1.564546124015e+04 
       3.602659928198e-02       1.554683506443e+04 
       3.619584841253e-02       1.545060537225e+04 
       3.636638049945e-02       1.535219662385e+04 
       3.653824032376e-02       1.525565409545e+04 
       3.671147475953e-02       1.515905586290e+04 
       3.688613290276e-02       1.506392780810e+04 
       3.706226621036e-02       1.496718777956e+04 
       3.723992865007e-02       1.487289072146e+04 
       3.741917686227e-02       1.477726977637e+04 
       3.760007033503e-02       1.468233634959e+04 
       3.778267159353e-02       1.458806315378e+04 
       3.796704640533e-02       1.449278075559e+04 
       3.815326400317e-02       1.440003098816e+04 
       3.834139732694e-02       1.430532626672e+04 
       3.853152328703e-02       1.421323343598e+04 
       3.872372305111e-02       1.411928841665e+04 
       3.891808235705e-02       1.402686579937e+04 
       3.911469185479e-02       1.393395672755e+04 
       3.931364748036e-02       1.384270170707e+04 
       3.951505086573e-02       1.375032087810e+04 
       3.971900978866e-02       1.365849012053e+04 
       3.992563866728e-02       1.356852600185e+04 
       4.013505910472e-02       1.347608155911e+04 
       4.034740048988e-02       1.338557731786e+04 
       4.056280066150e-02       1.329557472659e+04 
       4.078140664337e-02       1.320447762590e+04 
       4.100337546007e-02       1.311543776883e+04 
       4.122887504377e-02       1.302488758347e+04 
       4.145808524444e-02       1.293507150983e+04 
       4.169119895765e-02       1.284609455421e+04 
       4.192842338658e-02       1.275668620797e+04 
       4.216998145741e-02       1.266850311940e+04 
       4.241611341074e-02       1.257880446091e+04 
       4.266707859521e-02       1.249002006669e+04 
       4.292315749470e-02       1.240147228917e+04 
       4.318465402533e-02       1.231308725895e+04 
       4.345189814604e-02       1.222481322393e+04 
       4.372524883389e-02       1.213735703334e+04 
       4.400509748584e-02       1.204870599122e+04 
       4.429187182033e-02       1.196105547878e+04 
       4.458604036718e-02       1.187284826639e+04 
       4.488811765238e-02       1.178518182391e+04 
       4.519867020688e-02       1.169731503914e+04 
       4.551832355663e-02       1.160965123384e+04 
       4.584777038575e-02       1.152143401414e+04 
       4.618778010830e-02       1.143346332717e+04 
       4.653921013903e-02       1.134552450202e+04 
       4.690301922217e-02       1.125757293085e+04 
       4.728028326485e-02       1.116912342902e+04 
       4.767221423247e-02       1.108083463562e+04 
       4.808018280410e-02       1.099200640906e+04 
       4.850574566613e-02       1.090271253798e+04 
       4.895067855084e-02       1.081371981558e+04 
       4.941701641842e-02       1.072339479944e+04 
       4.990710254953e-02       1.063287413974e+04 
       5.042364877770e-02       1.054071205961e+04 
       5.096980965998e-02       1.044873883379e+04 
       5.154927406186e-02       1.035524173742e+04 
       5.216637839428e-02       1.025995839886e+04 
       5.282624649403e-02       1.016370669764e+04 
       5.353496165907e-02       1.006461285790e+04 
       5.429977613208e-02       9.962712342465e+03 
       5.512936133239e-02       9.856938827279e+03 
