# Matter power spectrum P(k) at redshift z=0
# for k=9.67645e-06 to 1.4771 h/Mpc,
# number of wavenumbers equal to 604
#    1:k (h/Mpc)              2:P (Mpc/h)^3        
       9.676454560645e-06       5.938869053928e+01 
       2.218173623104e-05       1.324960795240e+02 
       3.472729243406e-05       2.044158476222e+02 
       4.734493038069e-05       2.758789447104e+02 
       6.006694357356e-05       3.472998009116e+02 
       7.292638326610e-05       4.189898915252e+02 
       8.595733800000e-05       4.912164496188e+02 
       9.919522474552e-05       5.617383403494e+02 
       1.126770951969e-04       6.354646155605e+02 
       1.264419608058e-04       7.104329300502e+02 
       1.405311401510e-04       7.869245129358e+02 
       1.549886322140e-04       8.650056760092e+02 
       1.698615190249e-04       9.452568979574e+02 
       1.852004009025e-04       1.027803874744e+03 
       2.010598670844e-04       1.111584581878e+03 
       2.174990038199e-04       1.198994938977e+03 
       2.345819408849e-04       1.290169733106e+03 
       2.523784358038e-04       1.384967740822e+03 
       2.709644926590e-04       1.484243327075e+03 
       2.904230089919e-04       1.586077793270e+03 
       3.108444396896e-04       1.694196638555e+03 
       3.323274606017e-04       1.803860317289e+03 
       3.549796066480e-04       1.923430172633e+03 
       3.789178490962e-04       2.046114117931e+03 
       4.042690643838e-04       2.179563163304e+03 
       4.311703324677e-04       2.321057538429e+03 
       4.597689867936e-04       2.461439560955e+03 
       4.902223218558e-04       2.620019846847e+03 
       5.226968502240e-04       2.782803578439e+03 
       5.573669922826e-04       2.956977953472e+03 
       5.944130835119e-04       3.143717820725e+03 
       6.340186016992e-04       3.340153461923e+03 
       6.763665559494e-04       3.550726211058e+03 
       7.216350452907e-04       3.774424782326e+03 
       7.699920877350e-04       4.012099857816e+03 
       8.215899350343e-04       4.264116434886e+03 
       8.765592096349e-04       4.530429751850e+03 
       9.350033055246e-04       4.809887183285e+03 
       9.969935558372e-04       5.103185150724e+03 
       1.062565661704e-03       5.411873900802e+03 
       1.131717785293e-03       5.734517865852e+03 
       1.204410541387e-03       6.069757700466e+03 
       1.280568904168e-03       6.417026023650e+03 
       1.360085822317e-03       6.775809302749e+03 
       1.442827151882e-03       7.144543275060e+03 
       1.477104874446e-03       7.295368823543e+03 
       1.528637406546e-03       7.521357263443e+03 
       1.617345801657e-03       7.906096418006e+03 
       1.708772122407e-03       8.297034431275e+03 
       1.802732053036e-03       8.692966458201e+03 
       1.899041732671e-03       9.092762557198e+03 
       1.997521427975e-03       9.495193904532e+03 
       2.097998315419e-03       9.899286680795e+03 
       2.200308438981e-03       1.030428801536e+04 
       2.304297952352e-03       1.070850587513e+04 
       2.409823773281e-03       1.111177920765e+04 
       2.516753778254e-03       1.151335759790e+04 
       2.624966654882e-03       1.191253769111e+04 
       2.734351512799e-03       1.230881357778e+04 
       2.844807335360e-03       1.270150751375e+04 
       2.956242336545e-03       1.309074414705e+04 
       3.068573271583e-03       1.347523221398e+04 
       3.181724736482e-03       1.385512410016e+04 
       3.295628480937e-03       1.423015844816e+04 
       3.410222750746e-03       1.460027677440e+04 
       3.525451669660e-03       1.496513959910e+04 
       3.641264665975e-03       1.532457215349e+04 
       3.757615945969e-03       1.567821201593e+04 
       3.874464014040e-03       1.602637509575e+04 
       3.991771237967e-03       1.636865656518e+04 
       4.109503456786e-03       1.670515635851e+04 
       4.227629628306e-03       1.703580273613e+04 
       4.346121513016e-03       1.736066188736e+04 
       4.464953391153e-03       1.767938249329e+04 
       4.584101809745e-03       1.799223554728e+04 
       4.703545356632e-03       1.829913146779e+04 
       4.823264458654e-03       1.860011933199e+04 
       4.943241201442e-03       1.889524370195e+04 
       5.063459168477e-03       1.920277975043e+04 
       5.183903297279e-03       1.947604413730e+04 
       5.304559750862e-03       1.976075613566e+04 
       5.425415802729e-03       2.003779401316e+04 
       5.546459733915e-03       2.029300901243e+04 
       5.667680740724e-03       2.056603297593e+04 
       5.789068851976e-03       2.081217216678e+04 
       5.910614854703e-03       2.107418686490e+04 
       6.032310227364e-03       2.129721545098e+04 
       6.154147079748e-03       2.153692060038e+04 
       6.276118098837e-03       2.178122501892e+04 
       6.398216499986e-03       2.200030332563e+04 
       6.520435982833e-03       2.223275698878e+04 
       6.642770691456e-03       2.245906925415e+04 
       6.765215178302e-03       2.264605194779e+04 
       6.887764371516e-03       2.285797745895e+04 
       7.010413545298e-03       2.305795255353e+04 
       7.133158292984e-03       2.325603305080e+04 
       7.255994502575e-03       2.345730024149e+04 
       7.378918334461e-03       2.363861708144e+04 
       7.501926201125e-03       2.383725060729e+04 
       7.625014748626e-03       2.398924386455e+04 
       7.748180839699e-03       2.416253022989e+04 
       7.871421538294e-03       2.433435457764e+04 
       7.994734095442e-03       2.451562177288e+04 
       8.118115936294e-03       2.465224238634e+04 
       8.241564648254e-03       2.481171351442e+04 
       8.365077970072e-03       2.496654926954e+04 
       8.488653781839e-03       2.511717834951e+04 
       8.612290095775e-03       2.525040615936e+04 
       8.735985047763e-03       2.540786450200e+04 
       8.859736889544e-03       2.553895721965e+04 
       8.983543981522e-03       2.565595933199e+04 
       9.107404786135e-03       2.579159548094e+04 
       9.231317861722e-03       2.589895565789e+04 
       9.355281856865e-03       2.602083924443e+04 
       9.479295505152e-03       2.614038598841e+04 
       9.603357620339e-03       2.624083963401e+04 
       9.727467091861e-03       2.635819854459e+04 
       9.851622880675e-03       2.647242374487e+04 
       9.975824015417e-03       2.655672322997e+04 
       1.010006958882e-02       2.665906586878e+04 
       1.022435875440e-02       2.674883813522e+04 
       1.034869072338e-02       2.684715615247e+04 
       1.047306476183e-02       2.691470362493e+04 
       1.059748018800e-02       2.700119979009e+04 
       1.072193636988e-02       2.707422222921e+04 
       1.084643272284e-02       2.714546012019e+04 
       1.097096870757e-02       2.722816873708e+04 
       1.109554382802e-02       2.729395014137e+04 
       1.122015762959e-02       2.736196537156e+04 
       1.134480969740e-02       2.742243543350e+04 
       1.146949965469e-02       2.747015297409e+04 
       1.159422716130e-02       2.753149339553e+04 
       1.171899191231e-02       2.759172525025e+04 
       1.184379363675e-02       2.763397640211e+04 
       1.196863209637e-02       2.767866687414e+04 
       1.209350708454e-02       2.772622078107e+04 
       1.221841842520e-02       2.778008198317e+04 
       1.234336597191e-02       2.782265335085e+04 
       1.246834960694e-02       2.784338260746e+04 
       1.259336924043e-02       2.787787309409e+04 
       1.271842480964e-02       2.790958499146e+04 
       1.284351627822e-02       2.793622212303e+04 
       1.296864363554e-02       2.795968280748e+04 
       1.309380689613e-02       2.799431141247e+04 
       1.321900609903e-02       2.801280466103e+04 
       1.334424130738e-02       2.802422402719e+04 
       1.346951260784e-02       2.803376975778e+04 
       1.359482011025e-02       2.805399952879e+04 
       1.372016394717e-02       2.805800524471e+04 
       1.384554427356e-02       2.806725883041e+04 
       1.397096126643e-02       2.806985040175e+04 
       1.409641512457e-02       2.808785919935e+04 
       1.422190606826e-02       2.807717732085e+04 
       1.434743433911e-02       2.807673706520e+04 
       1.447300019976e-02       2.807045958062e+04 
       1.459860393380e-02       2.807135888965e+04 
       1.472424584556e-02       2.805961436691e+04 
       1.477104874446e-02       2.806936058559e+04 
       1.484992626002e-02       2.805648906228e+04 
       1.497564552271e-02       2.804032963388e+04 
       1.510140399963e-02       2.802997964047e+04 
       1.522720207720e-02       2.801235554551e+04 
       1.535304016223e-02       2.800306499951e+04 
       1.547891868192e-02       2.798013698543e+04 
       1.560483808387e-02       2.795623422933e+04 
       1.573079883612e-02       2.792800600987e+04 
       1.585680142718e-02       2.791310049925e+04 
       1.598284636613e-02       2.787899938535e+04 
       1.610893418269e-02       2.785654430395e+04 
       1.623506542735e-02       2.782756302231e+04 
       1.636124067147e-02       2.778675349785e+04 
       1.648746050745e-02       2.775636793510e+04 
       1.661372554887e-02       2.771968468278e+04 
       1.674003643070e-02       2.768496705166e+04 
       1.686639380944e-02       2.764418588934e+04 
       1.699279836340e-02       2.760288487222e+04 
       1.711925079289e-02       2.757011706202e+04 
       1.724575182047e-02       2.751995564669e+04 
       1.737230219122e-02       2.747813412774e+04 
       1.749890267301e-02       2.742757421547e+04 
       1.762555405680e-02       2.738233915734e+04 
       1.775225715697e-02       2.733073998230e+04 
       1.787901281161e-02       2.727903854453e+04 
       1.800582188289e-02       2.723066496449e+04 
       1.813268525743e-02       2.717283030929e+04 
       1.825960384665e-02       2.712444789652e+04 
       1.838657858718e-02       2.706734791814e+04 
       1.851361044130e-02       2.701360603556e+04 
       1.864070039730e-02       2.695112032619e+04 
       1.876784947001e-02       2.688995782815e+04 
       1.889505870120e-02       2.682785254641e+04 
       1.902232916008e-02       2.676878174171e+04 
       1.914966194383e-02       2.670556253535e+04 
       1.927705817809e-02       2.663957946294e+04 
       1.940451901748e-02       2.657572116882e+04 
       1.953204564622e-02       2.650777020138e+04 
       1.965963927863e-02       2.644618447222e+04 
       1.978730115979e-02       2.637135479935e+04 
       1.991503256613e-02       2.630285492674e+04 
       2.004283480605e-02       2.623208436671e+04 
       2.017070922062e-02       2.616413915240e+04 
       2.029865718423e-02       2.608875592715e+04 
       2.042668010530e-02       2.601384825363e+04 
       2.055477942703e-02       2.593949577522e+04 
       2.068295662809e-02       2.586535757945e+04 
       2.081121322347e-02       2.579123017252e+04 
       2.093955076522e-02       2.571116286312e+04 
       2.106797084331e-02       2.563583801884e+04 
       2.119647508644e-02       2.555583763484e+04 
       2.132506516298e-02       2.547610727712e+04 
       2.145374278180e-02       2.539589204605e+04 
       2.158250969326e-02       2.531499336639e+04 
       2.171136769014e-02       2.523773288669e+04 
       2.184031860867e-02       2.515461858663e+04 
       2.196936432950e-02       2.507414652762e+04 
       2.209850677879e-02       2.498498474228e+04 
       2.222774792930e-02       2.490190317446e+04 
       2.235708980152e-02       2.481788934799e+04 
       2.248653446480e-02       2.473274549923e+04 
       2.261608403855e-02       2.464632437369e+04 
       2.274574069351e-02       2.456157253742e+04 
       2.287550665298e-02       2.447177466341e+04 
       2.300538419416e-02       2.438423992955e+04 
       2.313537564948e-02       2.429483555967e+04 
       2.326548340802e-02       2.420922434674e+04 
       2.339570991694e-02       2.411965728778e+04 
       2.352605768297e-02       2.403022815525e+04 
       2.365652927394e-02       2.393737758629e+04 
       2.378712732039e-02       2.384770823155e+04 
       2.391785451719e-02       2.375542848500e+04 
       2.404871362520e-02       2.366359288373e+04 
       2.417970747310e-02       2.357162405665e+04 
       2.431083895910e-02       2.347934782281e+04 
       2.444211105287e-02       2.338633351693e+04 
       2.457352679744e-02       2.329577234316e+04 
       2.470508931119e-02       2.320029064049e+04 
       2.483680178990e-02       2.311097886733e+04 
       2.496866750892e-02       2.301400201396e+04 
       2.510068982530e-02       2.291899865704e+04 
       2.523287218012e-02       2.282654828643e+04 
       2.536521810082e-02       2.273228244994e+04 
       2.549773120363e-02       2.263695585205e+04 
       2.563041519610e-02       2.254025337862e+04 
       2.576327387971e-02       2.244541168528e+04 
       2.589631115253e-02       2.234828672493e+04 
       2.602953101208e-02       2.225444596308e+04 
       2.616293755817e-02       2.215685648163e+04 
       2.629653499591e-02       2.206150376516e+04 
       2.643032763883e-02       2.196343278784e+04 
       2.656431991208e-02       2.186596260902e+04 
       2.669851635580e-02       2.177002433759e+04 
       2.683292162852e-02       2.167249418168e+04 
       2.696754051081e-02       2.157720984069e+04 
       2.710237790899e-02       2.147810184488e+04 
       2.723743885895e-02       2.138101643693e+04 
       2.737272853021e-02       2.128350455119e+04 
       2.750825223008e-02       2.118629619979e+04 
       2.764401540796e-02       2.108961697990e+04 
       2.778002365982e-02       2.099138768535e+04 
       2.791628273293e-02       2.089428197450e+04 
       2.805279853065e-02       2.079665203279e+04 
       2.818957711751e-02       2.070059440472e+04 
       2.832662472443e-02       2.060201953259e+04 
       2.846394775421e-02       2.050607133145e+04 
       2.860155278721e-02       2.040587700395e+04 
       2.873944658721e-02       2.030884088139e+04 
       2.887763610765e-02       2.021060632799e+04 
       2.901612849799e-02       2.011428935686e+04 
       2.915493111042e-02       2.001771016491e+04 
       2.929405150682e-02       1.991855194281e+04 
       2.943349746604e-02       1.982242300993e+04 
       2.957327699148e-02       1.972359352673e+04 
       2.971339831897e-02       1.962652955697e+04 
       2.985386992509e-02       1.953053120261e+04 
       2.999470053575e-02       1.943442344552e+04 
       3.013589913522e-02       1.933616534558e+04 
       3.027747497553e-02       1.923824985705e+04 
       3.041943758636e-02       1.914392552079e+04 
       3.056179678527e-02       1.904720147840e+04 
       3.070456268854e-02       1.894967157607e+04 
       3.084774572243e-02       1.885234050114e+04 
       3.099135663497e-02       1.875603028414e+04 
       3.113540650838e-02       1.865929603684e+04 
       3.127990677200e-02       1.856352724885e+04 
       3.142486921593e-02       1.846904351369e+04 
       3.157030600525e-02       1.837343753137e+04 
       3.171622969507e-02       1.827641254832e+04 
       3.186265324619e-02       1.818054737529e+04 
       3.200959004168e-02       1.808595239580e+04 
       3.215705390417e-02       1.799050852289e+04 
       3.230505911421e-02       1.789615525387e+04 
       3.245362042940e-02       1.780178625026e+04 
       3.260275310466e-02       1.770675813154e+04 
       3.275247291354e-02       1.761208561133e+04 
       3.290279617061e-02       1.751899672834e+04 
       3.305373975520e-02       1.742414647571e+04 
       3.320532113634e-02       1.733165986561e+04 
       3.335755839909e-02       1.723688430645e+04 
       3.351047027241e-02       1.714397848829e+04 
       3.366407615858e-02       1.705225172376e+04 
       3.381839616427e-02       1.695783792303e+04 
       3.397345113348e-02       1.686545721220e+04 
       3.412926268239e-02       1.677250261749e+04 
       3.428585323625e-02       1.668123602541e+04 
       3.444324606856e-02       1.658923798162e+04 
       3.460146534253e-02       1.649646512696e+04 
       3.476053615522e-02       1.640605459154e+04 
       3.492048458430e-02       1.631369882317e+04 
       3.508133773786e-02       1.622362333815e+04 
       3.524312380736e-02       1.613285543969e+04 
       3.540587212399e-02       1.604210380931e+04 
       3.556961321879e-02       1.595145574190e+04 
       3.573437888661e-02       1.586063888742e+04 
       3.590020225457e-02       1.577048999706e+04 
       3.606711785501e-02       1.568166859993e+04 
       3.623516170355e-02       1.559155416231e+04 
       3.640437138262e-02       1.550308780701e+04 
       3.657478613084e-02       1.541318684526e+04 
       3.674644693889e-02       1.532462970172e+04 
       3.691939665235e-02       1.523642068468e+04 
       3.709368008208e-02       1.514802573029e+04 
       3.726934412297e-02       1.505949156648e+04 
       3.744643788164e-02       1.497136026099e+04 
       3.762501281402e-02       1.488381435247e+04 
       3.780512287368e-02       1.479655772712e+04 
       3.798682467203e-02       1.470915898830e+04 
       3.817017765132e-02       1.462214251932e+04 
       3.835524427194e-02       1.453566215951e+04 
       3.854209021524e-02       1.444892808834e+04 
       3.873078460354e-02       1.436269323272e+04 
       3.892140023905e-02       1.427595249606e+04 
       3.911401386365e-02       1.419066815596e+04 
       3.930870644181e-02       1.410480066098e+04 
       3.950556346898e-02       1.401903685713e+04 
       3.970467530842e-02       1.393353590984e+04 
       3.990613755951e-02       1.384794814475e+04 
       4.011005146107e-02       1.376352611848e+04 
       4.031652433388e-02       1.367826587117e+04 
       4.052567006681e-02       1.359394059077e+04 
       4.073760965183e-02       1.350932031637e+04 
       4.095247177392e-02       1.342429510174e+04 
       4.117039346255e-02       1.334040987237e+04 
       4.139152081253e-02       1.325556548648e+04 
       4.161600978329e-02       1.317159445129e+04 
       4.184402708666e-02       1.308830052235e+04 
       4.207575117519e-02       1.300404225234e+04 
       4.231137334468e-02       1.292046353831e+04 
       4.255109896684e-02       1.283671858379e+04 
       4.279514887065e-02       1.275301677369e+04 
       4.304376089409e-02       1.266932356873e+04 
       4.329719163160e-02       1.258582311522e+04 
       4.355571840698e-02       1.250252120882e+04 
       4.381964150693e-02       1.241912382474e+04 
       4.408928671672e-02       1.233551859326e+04 
       4.436500820717e-02       1.225202451427e+04 
       4.464719183167e-02       1.216853506209e+04 
       4.493625890340e-02       1.208500151418e+04 
       4.523267053674e-02       1.200155982666e+04 
       4.553693265446e-02       1.191773836732e+04 
       4.584960178311e-02       1.183365449044e+04 
       4.617129178570e-02       1.174990042130e+04 
       4.650268171322e-02       1.166561945449e+04 
       4.684452499780e-02       1.158140363674e+04 
       4.719766026100e-02       1.149669667031e+04 
       4.756302407609e-02       1.141120746700e+04 
       4.794166610394e-02       1.132579254347e+04 
       4.833476712630e-02       1.123999769805e+04 
       4.874366063124e-02       1.115373423803e+04 
       4.916985877356e-02       1.106689262207e+04 
       4.961508374629e-02       1.097959069941e+04 
       5.008130587164e-02       1.089159220921e+04 
       5.057079006480e-02       1.080212340729e+04 
       5.108615275867e-02       1.071192402804e+04 
       5.163043191601e-02       1.062068809780e+04 
       5.220717340679e-02       1.052827688120e+04 
       5.282053777843e-02       1.043401153399e+04 
       5.347543223338e-02       1.033747497685e+04 
       5.417767328155e-02       1.023838025271e+04 
       5.493418566658e-02       1.013687776471e+04 
       5.575324195181e-02       1.003083041918e+04 
       5.664474295936e-02       9.920286292512e+03 
