# Matter power spectrum P(k) at redshift z=3
# for k=9.67645e-06 to 1.4771 h/Mpc,
# number of wavenumbers equal to 604
#    1:k (h/Mpc)              2:P (Mpc/h)^3        
       9.676454560645e-06       6.762119515466e+00 
       2.218173623104e-05       1.508609041067e+01 
       3.472729243406e-05       2.327440252922e+01 
       4.734493038069e-05       3.141003908905e+01 
       6.006694357356e-05       3.953993234610e+01 
       7.292638326610e-05       4.769927371007e+01 
       8.595733800000e-05       5.591819184932e+01 
       9.919522474552e-05       6.422445987947e+01 
       1.126770951969e-04       7.264487184729e+01 
       1.264419608058e-04       8.120606998562e+01 
       1.405311401510e-04       8.993511482556e+01 
       1.549886322140e-04       9.885992563118e+01 
       1.698615190249e-04       1.080096534215e+02 
       1.852004009025e-04       1.174150196744e+02 
       2.010598670844e-04       1.271086393460e+02 
       2.174990038199e-04       1.371253388967e+02 
       2.345819408849e-04       1.475024750759e+02 
       2.523784358038e-04       1.582802566114e+02 
       2.709644926590e-04       1.695020678118e+02 
       2.904230089919e-04       1.812147898597e+02 
       3.108444396896e-04       1.934691119234e+02 
       3.323274606017e-04       2.063198198336e+02 
       3.549796066480e-04       2.198260447726e+02 
       3.789178490962e-04       2.340514480574e+02 
       4.042690643838e-04       2.490643106659e+02 
       4.311703324677e-04       2.649374878509e+02 
       4.597689867936e-04       2.817481805283e+02 
       4.902223218558e-04       2.995774670996e+02 
       5.226968502240e-04       3.185095335686e+02 
       5.573669922826e-04       3.386305385465e+02 
       5.944130835119e-04       3.600270560356e+02 
       6.340186016992e-04       3.827840561552e+02 
       6.763665559494e-04       4.069824154465e+02 
       7.216350452907e-04       4.326959958693e+02 
       7.699920877350e-04       4.599883939891e+02 
       8.215899350343e-04       4.889095335009e+02 
       8.765592096349e-04       5.194923440335e+02 
       9.350033055246e-04       5.517498212429e+02 
       9.969935558372e-04       5.856727799453e+02 
       1.062565661704e-03       6.212285796226e+02 
       1.131717785293e-03       6.583610161073e+02 
       1.204410541387e-03       6.969914448857e+02 
       1.280568904168e-03       7.370210541742e+02 
       1.360085822317e-03       7.783340711034e+02 
       1.442827151882e-03       8.208015907382e+02 
       1.477104874446e-03       8.382397951054e+02 
       1.528637406546e-03       8.642856818663e+02 
       1.617345801657e-03       9.086434453090e+02 
       1.708772122407e-03       9.537307649864e+02 
       1.802732053036e-03       9.994055765681e+02 
       1.899041732671e-03       1.045530395606e+03 
       1.997521427975e-03       1.091972939804e+03 
       2.097998315419e-03       1.138612965258e+03 
       2.200308438981e-03       1.185337685007e+03 
       2.304297952352e-03       1.232044179388e+03 
       2.409823773281e-03       1.278639520588e+03 
       2.516753778254e-03       1.325040576271e+03 
       2.624966654882e-03       1.371173570351e+03 
       2.734351512799e-03       1.416973478588e+03 
       2.844807335360e-03       1.462383331481e+03 
       2.956242336545e-03       1.507353486231e+03 
       3.068573271583e-03       1.551840914174e+03 
       3.181724736482e-03       1.595808532630e+03 
       3.295628480937e-03       1.639224593673e+03 
       3.410222750746e-03       1.682062129773e+03 
       3.525451669660e-03       1.724298449202e+03 
       3.641264665975e-03       1.765914672423e+03 
       3.757615945969e-03       1.806895302949e+03 
       3.874464014040e-03       1.847227830134e+03 
       3.991771237967e-03       1.886902364788e+03 
       4.109503456786e-03       1.925911310057e+03 
       4.227629628306e-03       1.964249069355e+03 
       4.346121513016e-03       2.001911790889e+03 
       4.464953391153e-03       2.038897145740e+03 
       4.584101809745e-03       2.075204134582e+03 
       4.703545356632e-03       2.110832917803e+03 
       4.823264458654e-03       2.145784664676e+03 
       4.943241201442e-03       2.180061419110e+03 
       5.063459168477e-03       2.213665501845e+03 
       5.183903297279e-03       2.246600844891e+03 
       5.304559750862e-03       2.278871471786e+03 
       5.425415802729e-03       2.310481896266e+03 
       5.546459733915e-03       2.341437065889e+03 
       5.667680740724e-03       2.371742311686e+03 
       5.789068851976e-03       2.401403299770e+03 
       5.910614854703e-03       2.430425989328e+03 
       6.032310227364e-03       2.458816589467e+03 
       6.154147079748e-03       2.486581509107e+03 
       6.276118098837e-03       2.513727321052e+03 
       6.398216499986e-03       2.540260725047e+03 
       6.520435982833e-03       2.566188515149e+03 
       6.642770691456e-03       2.591517556776e+03 
       6.765215178302e-03       2.616254768827e+03 
       6.887764371516e-03       2.640407109760e+03 
       7.010413545298e-03       2.663981569498e+03 
       7.133158292984e-03       2.686985160588e+03 
       7.255994502575e-03       2.709424910125e+03 
       7.378918334461e-03       2.731307852632e+03 
       7.501926201125e-03       2.752641019706e+03 
       7.625014748626e-03       2.773431431346e+03 
       7.748180839699e-03       2.793686087372e+03 
       7.871421538294e-03       2.813411962852e+03 
       7.994734095442e-03       2.832616167414e+03 
       8.118115936294e-03       2.851306251317e+03 
       8.241564648254e-03       2.869488103688e+03 
       8.365077970072e-03       2.887168455832e+03 
       8.488653781839e-03       2.904353980608e+03 
       8.612290095775e-03       2.921051274254e+03 
       8.735985047763e-03       2.937266849270e+03 
       8.859736889544e-03       2.953007131312e+03 
       8.983543981522e-03       2.968278461111e+03 
       9.107404786135e-03       2.983087094680e+03 
       9.231317861722e-03       2.997439206550e+03 
       9.355281856865e-03       3.011340892975e+03 
       9.479295505152e-03       3.024798174208e+03 
       9.603357620339e-03       3.037816998148e+03 
       9.727467091861e-03       3.050403241192e+03 
       9.851622880675e-03       3.062562710314e+03 
       9.975824015417e-03       3.074301141988e+03 
       1.010006958882e-02       3.085624202094e+03 
       1.022435875440e-02       3.096537484076e+03 
       1.034869072338e-02       3.107046507676e+03 
       1.047306476183e-02       3.117156718415e+03 
       1.059748018800e-02       3.126873487842e+03 
       1.072193636988e-02       3.136202115439e+03 
       1.084643272284e-02       3.145147832430e+03 
       1.097096870757e-02       3.153715806657e+03 
       1.109554382802e-02       3.161911149197e+03 
       1.122015762959e-02       3.169738920672e+03 
       1.134480969740e-02       3.177204137907e+03 
       1.146949965469e-02       3.184311779127e+03 
       1.159422716130e-02       3.191066787426e+03 
       1.171899191231e-02       3.197474074395e+03 
       1.184379363675e-02       3.203538521054e+03 
       1.196863209637e-02       3.209264976988e+03 
       1.209350708454e-02       3.214658254383e+03 
       1.221841842520e-02       3.219723093886e+03 
       1.234336597191e-02       3.224464088603e+03 
       1.246834960694e-02       3.228885624570e+03 
       1.259336924043e-02       3.232991960793e+03 
       1.271842480964e-02       3.236787387856e+03 
       1.284351627822e-02       3.240276268582e+03 
       1.296864363554e-02       3.243462972746e+03 
       1.309380689613e-02       3.246351822363e+03 
       1.321900609903e-02       3.248947075923e+03 
       1.334424130738e-02       3.251252931387e+03 
       1.346951260784e-02       3.253273533137e+03 
       1.359482011025e-02       3.255012983459e+03 
       1.372016394717e-02       3.256475258900e+03 
       1.384554427356e-02       3.257664502594e+03 
       1.397096126643e-02       3.258584586698e+03 
       1.409641512457e-02       3.259239447226e+03 
       1.422190606826e-02       3.259632971128e+03 
       1.434743433911e-02       3.259769005494e+03 
       1.447300019976e-02       3.259651359319e+03 
       1.459860393380e-02       3.259283804477e+03 
       1.472424584556e-02       3.258670076510e+03 
       1.477104874446e-02       3.258379339238e+03 
       1.484992626002e-02       3.257813875296e+03 
       1.497564552271e-02       3.256718865589e+03 
       1.510140399963e-02       3.255388677501e+03 
       1.522720207720e-02       3.253826907036e+03 
       1.535304016223e-02       3.252037116491e+03 
       1.547891868192e-02       3.250022834950e+03 
       1.560483808387e-02       3.247787558605e+03 
       1.573079883612e-02       3.245334751203e+03 
       1.585680142718e-02       3.242667844419e+03 
       1.598284636613e-02       3.239790238109e+03 
       1.610893418269e-02       3.236705300750e+03 
       1.623506542735e-02       3.233416369720e+03 
       1.636124067147e-02       3.229926751567e+03 
       1.648746050745e-02       3.226239722587e+03 
       1.661372554887e-02       3.222358528628e+03 
       1.674003643070e-02       3.218286385935e+03 
       1.686639380944e-02       3.214026481279e+03 
       1.699279836340e-02       3.209581972250e+03 
       1.711925079289e-02       3.204955987814e+03 
       1.724575182047e-02       3.200151628416e+03 
       1.737230219122e-02       3.195171966719e+03 
       1.749890267301e-02       3.190020047849e+03 
       1.762555405680e-02       3.184698889736e+03 
       1.775225715697e-02       3.179211483770e+03 
       1.787901281161e-02       3.173560794935e+03 
       1.800582188289e-02       3.167749762368e+03 
       1.813268525743e-02       3.161781299713e+03 
       1.825960384665e-02       3.155658295271e+03 
       1.838657858718e-02       3.149383612592e+03 
       1.851361044130e-02       3.142960090285e+03 
       1.864070039730e-02       3.136390542555e+03 
       1.876784947001e-02       3.129677759206e+03 
       1.889505870120e-02       3.122824505618e+03 
       1.902232916008e-02       3.115833523004e+03 
       1.914966194383e-02       3.108707528257e+03 
       1.927705817809e-02       3.101449213905e+03 
       1.940451901748e-02       3.094061248378e+03 
       1.953204564622e-02       3.086546275512e+03 
       1.965963927863e-02       3.078906914806e+03 
       1.978730115979e-02       3.071145761415e+03 
       1.991503256613e-02       3.063265385931e+03 
       2.004283480605e-02       3.055268334508e+03 
       2.017070922062e-02       3.047157128986e+03 
       2.029865718423e-02       3.038934266796e+03 
       2.042668010530e-02       3.030602221137e+03 
       2.055477942703e-02       3.022163441009e+03 
       2.068295662809e-02       3.013620351529e+03 
       2.081121322347e-02       3.004975353846e+03 
       2.093955076522e-02       2.996230825461e+03 
       2.106797084331e-02       2.987389120365e+03 
       2.119647508644e-02       2.978452569111e+03 
       2.132506516298e-02       2.969423478989e+03 
       2.145374278180e-02       2.960304134412e+03 
       2.158250969326e-02       2.951096796472e+03 
       2.171136769014e-02       2.941803703591e+03 
       2.184031860867e-02       2.932427071366e+03 
       2.196936432950e-02       2.922969092586e+03 
       2.209850677879e-02       2.913431937312e+03 
       2.222774792930e-02       2.903817752825e+03 
       2.235708980152e-02       2.894128663859e+03 
       2.248653446480e-02       2.884366772368e+03 
       2.261608403855e-02       2.874534157428e+03 
       2.274574069351e-02       2.864632875486e+03 
       2.287550665298e-02       2.854664960301e+03 
       2.300538419416e-02       2.844632422556e+03 
       2.313537564948e-02       2.834537250400e+03 
       2.326548340802e-02       2.824381408930e+03 
       2.339570991694e-02       2.814166840596e+03 
       2.352605768297e-02       2.803895465033e+03 
       2.365652927394e-02       2.793569178768e+03 
       2.378712732039e-02       2.783189855668e+03 
       2.391785451719e-02       2.772759346979e+03 
       2.404871362520e-02       2.762279481048e+03 
       2.417970747310e-02       2.751752063449e+03 
       2.431083895910e-02       2.741178876883e+03 
       2.444211105287e-02       2.730561681732e+03 
       2.457352679744e-02       2.719902215608e+03 
       2.470508931119e-02       2.709202193354e+03 
       2.483680178990e-02       2.698463307457e+03 
       2.496866750892e-02       2.687687227846e+03 
       2.510068982530e-02       2.676875601983e+03 
       2.523287218012e-02       2.666030055012e+03 
       2.536521810082e-02       2.655152189635e+03 
       2.549773120363e-02       2.644243586455e+03 
       2.563041519610e-02       2.633305803487e+03 
       2.576327387971e-02       2.622340376841e+03 
       2.589631115253e-02       2.611348820571e+03 
       2.602953101208e-02       2.600332626485e+03 
       2.616293755817e-02       2.589293264398e+03 
       2.629653499591e-02       2.578232182169e+03 
       2.643032763883e-02       2.567150805647e+03 
       2.656431991208e-02       2.556050538791e+03 
       2.669851635580e-02       2.544932763556e+03 
       2.683292162852e-02       2.533798839978e+03 
       2.696754051081e-02       2.522650106231e+03 
       2.710237790899e-02       2.511487878612e+03 
       2.723743885895e-02       2.500313451230e+03 
       2.737272853021e-02       2.489128096631e+03 
       2.750825223008e-02       2.477933065292e+03 
       2.764401540796e-02       2.466729585614e+03 
       2.778002365982e-02       2.455518864371e+03 
       2.791628273293e-02       2.444302086288e+03 
       2.805279853065e-02       2.433080414440e+03 
       2.818957711751e-02       2.421854989914e+03 
       2.832662472443e-02       2.410626932141e+03 
       2.846394775421e-02       2.399397339118e+03 
       2.860155278721e-02       2.388167286926e+03 
       2.873944658721e-02       2.376937830242e+03 
       2.887763610765e-02       2.365710002613e+03 
       2.901612849799e-02       2.354484815911e+03 
       2.915493111042e-02       2.343263260865e+03 
       2.929405150682e-02       2.332046307118e+03 
       2.943349746604e-02       2.320834903038e+03 
       2.957327699148e-02       2.309629976249e+03 
       2.971339831897e-02       2.298432432965e+03 
       2.985386992509e-02       2.287243158808e+03 
       2.999470053575e-02       2.276063018343e+03 
       3.013589913522e-02       2.264892855133e+03 
       3.027747497553e-02       2.253733492155e+03 
       3.041943758636e-02       2.242585731160e+03 
       3.056179678527e-02       2.231450353500e+03 
       3.070456268854e-02       2.220328119244e+03 
       3.084774572243e-02       2.209219768071e+03 
       3.099135663497e-02       2.198126018790e+03 
       3.113540650838e-02       2.187047569418e+03 
       3.127990677200e-02       2.175985097399e+03 
       3.142486921593e-02       2.164939259493e+03 
       3.157030600525e-02       2.153910692100e+03 
       3.171622969507e-02       2.142900011023e+03 
       3.186265324619e-02       2.131907811519e+03 
       3.200959004168e-02       2.120934668723e+03 
       3.215705390417e-02       2.109981137256e+03 
       3.230505911421e-02       2.099047751759e+03 
       3.245362042940e-02       2.088135026265e+03 
       3.260275310466e-02       2.077243454988e+03 
       3.275247291354e-02       2.066373511895e+03 
       3.290279617061e-02       2.055525650460e+03 
       3.305373975520e-02       2.044700304497e+03 
       3.320532113634e-02       2.033897887256e+03 
       3.335755839909e-02       2.023118791805e+03 
       3.351047027241e-02       2.012363391069e+03 
       3.366407615858e-02       2.001632037439e+03 
       3.381839616427e-02       1.990925063081e+03 
       3.397345113348e-02       1.980242779571e+03 
       3.412926268239e-02       1.969585477994e+03 
       3.428585323625e-02       1.958953428780e+03 
       3.444324606856e-02       1.948346881748e+03 
       3.460146534253e-02       1.937766065817e+03 
       3.476053615522e-02       1.927211189161e+03 
       3.492048458430e-02       1.916682439048e+03 
       3.508133773786e-02       1.906179981503e+03 
       3.524312380736e-02       1.895703961421e+03 
       3.540587212399e-02       1.885254502821e+03 
       3.556961321879e-02       1.874831707942e+03 
       3.573437888661e-02       1.864435657782e+03 
       3.590020225457e-02       1.854066411498e+03 
       3.606711785501e-02       1.843724006605e+03 
       3.623516170355e-02       1.833408458610e+03 
       3.640437138262e-02       1.823119760668e+03 
       3.657478613084e-02       1.812857883538e+03 
       3.674644693889e-02       1.802622775376e+03 
       3.691939665235e-02       1.792414361070e+03 
       3.709368008208e-02       1.782232542236e+03 
       3.726934412297e-02       1.772077196582e+03 
       3.744643788164e-02       1.761948177620e+03 
       3.762501281402e-02       1.751845314266e+03 
       3.780512287368e-02       1.741768409748e+03 
       3.798682467203e-02       1.731717242023e+03 
       3.817017765132e-02       1.721691561896e+03 
       3.835524427194e-02       1.711691093219e+03 
       3.854209021524e-02       1.701715532087e+03 
       3.873078460354e-02       1.691764545684e+03 
       3.892140023905e-02       1.681837771847e+03 
       3.911401386365e-02       1.671934817682e+03 
       3.930870644181e-02       1.662055259104e+03 
       3.950556346898e-02       1.652198639724e+03 
       3.970467530842e-02       1.642364469416e+03 
       3.990613755951e-02       1.632552223517e+03 
       4.011005146107e-02       1.622761341270e+03 
       4.031652433388e-02       1.612991224647e+03 
       4.052567006681e-02       1.603241236146e+03 
       4.073760965183e-02       1.593510697758e+03 
       4.095247177392e-02       1.583798888484e+03 
       4.117039346255e-02       1.574105042023e+03 
       4.139152081253e-02       1.564428344534e+03 
       4.161600978329e-02       1.554767931835e+03 
       4.184402708666e-02       1.545122885911e+03 
       4.207575117519e-02       1.535492231602e+03 
       4.231137334468e-02       1.525874932963e+03 
       4.255109896684e-02       1.516269888401e+03 
       4.279514887065e-02       1.506675925907e+03 
       4.304376089409e-02       1.497091797589e+03 
       4.329719163160e-02       1.487516173251e+03 
       4.355571840698e-02       1.477947633365e+03 
       4.381964150693e-02       1.468384660476e+03 
       4.408928671672e-02       1.458825630377e+03 
       4.436500820717e-02       1.449268800803e+03 
       4.464719183167e-02       1.439712298396e+03 
       4.493625890340e-02       1.430154104109e+03 
       4.523267053674e-02       1.420592035243e+03 
       4.553693265446e-02       1.411023723529e+03 
       4.584960178311e-02       1.401446590435e+03 
       4.617129178570e-02       1.391857815564e+03 
       4.650268171322e-02       1.382254299142e+03 
       4.684452499780e-02       1.372632616414e+03 
       4.719766026100e-02       1.362988960895e+03 
       4.756302407609e-02       1.353319074272e+03 
       4.794166610394e-02       1.343618158225e+03 
       4.833476712630e-02       1.333880762797e+03 
       4.874366063124e-02       1.324100643167e+03 
       4.916985877356e-02       1.314270574287e+03 
       4.961508374629e-02       1.304382108791e+03 
       5.008130587164e-02       1.294425257830e+03 
       5.057079006480e-02       1.284388065616e+03 
       5.108615275867e-02       1.274256037988e+03 
       5.163043191601e-02       1.264011362215e+03 
       5.220717340679e-02       1.253631835463e+03 
       5.282053777843e-02       1.243089373034e+03 
       5.347543223338e-02       1.232347911902e+03 
       5.417767328155e-02       1.221360437004e+03 
       5.493418566658e-02       1.210064720157e+03 
       5.575324195181e-02       1.198377186410e+03 
       5.664474295936e-02       1.186184056542e+03 
