# Matter power spectrum P(k) at redshift z=3
# for k=9.64645e-06 to 1.4771 h/Mpc,
# number of wavenumbers equal to 604
#    1:k (h/Mpc)              2:P (Mpc/h)^3        
       9.646448868870e-06       6.847478309936e+00 
       2.213095154145e-05       1.528854938493e+01 
       3.465549362501e-05       2.359182275583e+01 
       4.725172329898e-05       3.184145630527e+01 
       5.995177071939e-05       4.008499235617e+01 
       7.278851721124e-05       4.835805252286e+01 
       8.579587244255e-05       5.669111625390e+01 
       9.900906306430e-05       6.511226709746e+01 
       1.124649363276e-04       7.364858805914e+01 
       1.262022822203e-04       8.232699942779e+01 
       1.402621776802e-04       9.117483552714e+01 
       1.546883564164e-04       1.002202897370e+02 
       1.695276077649e-04       1.094927909514e+02 
       1.848302077738e-04       1.190233450412e+02 
       2.006503852924e-04       1.288448602217e+02 
       2.170468251328e-04       1.389924671758e+02 
       2.340832092831e-04       1.495038397863e+02 
       2.518287955137e-04       1.604195186999e+02 
       2.703590303636e-04       1.717832367832e+02 
       2.897561901924e-04       1.836422423071e+02 
       3.101100394659e-04       1.960476120402e+02 
       3.315184894255e-04       2.090545420648e+02 
       3.540882324694e-04       2.227225988429e+02 
       3.779353176877e-04       2.371159067087e+02 
       4.031856209264e-04       2.523032405475e+02 
       4.299751486078e-04       2.683579841211e+02 
       4.584500988838e-04       2.853579058238e+02 
       4.887665877581e-04       3.033846955729e+02 
       5.210899337480e-04       3.225232006130e+02 
       5.555933858250e-04       3.428602965426e+02 
       5.924561803698e-04       3.644833358298e+02 
       6.318608293638e-04       3.874781329109e+02 
       6.739895798792e-04       4.119264758794e+02 
       7.190200486911e-04       4.379032016815e+02 
       7.671201264528e-04       4.654729337018e+02 
       8.184423579943e-04       4.946866522333e+02 
       8.731181251925e-04       5.255783387279e+02 
       9.312520642982e-04       5.581619882092e+02 
       9.929172132117e-04       5.924293031908e+02 
       1.058151380448e-03       6.283483526888e+02 
       1.126955142080e-03       6.658633968539e+02 
       1.199291710560e-03       7.048959508550e+02 
       1.275088706254e-03       7.453470142188e+02 
       1.354241640735e-03       7.871002550987e+02 
       1.436618735749e-03       8.300258420913e+02 
       1.477104874446e-03       8.509257831738e+02 
       1.522066587722e-03       8.739845767162e+02 
       1.610416158914e-03       9.188319982936e+02 
       1.701488624940e-03       9.644221954151e+02 
       1.795100710789e-03       1.010611142167e+03 
       1.891069273937e-03       1.057259388243e+03 
       1.989215017176e-03       1.104232374574e+03 
       2.089365317176e-03       1.151407881095e+03 
       2.191356229218e-03       1.198671124255e+03 
       2.295033773502e-03       1.245917296106e+03 
       2.400254628485e-03       1.293051714729e+03 
       2.506886358468e-03       1.339989643579e+03 
       2.614807292718e-03       1.386655859135e+03 
       2.723906157332e-03       1.432984046276e+03 
       2.834081542853e-03       1.478916095851e+03 
       2.945241272847e-03       1.524401368081e+03 
       3.057301722767e-03       1.569395969811e+03 
       3.170187125020e-03       1.613862075694e+03 
       3.283828885325e-03       1.657767306467e+03 
       3.398164927040e-03       1.701084164542e+03 
       3.513139073774e-03       1.743789519781e+03 
       3.628700475947e-03       1.785864136615e+03 
       3.744803083641e-03       1.827292235964e+03 
       3.861405165784e-03       1.868061089464e+03 
       3.978468874249e-03       1.908160647048e+03 
       4.095959850438e-03       1.947583200472e+03 
       4.213846871467e-03       1.986323084686e+03 
       4.332101532747e-03       2.024376416601e+03 
       4.450697963767e-03       2.061740868131e+03 
       4.569612573912e-03       2.098415468498e+03 
       4.688823825326e-03       2.134400430413e+03 
       4.808312030032e-03       2.169696995738e+03 
       4.928059168740e-03       2.204307298124e+03 
       5.048048728983e-03       2.238233758641e+03 
       5.168265560491e-03       2.271480423168e+03 
       5.288695745880e-03       2.304051448601e+03 
       5.409326484970e-03       2.335951484673e+03 
       5.530145991195e-03       2.367185622439e+03 
       5.651143398788e-03       2.397759343233e+03 
       5.772308679512e-03       2.427678469412e+03 
       5.893632567903e-03       2.456949119983e+03 
       6.015106494062e-03       2.485577668144e+03 
       6.136722523190e-03       2.513570689014e+03 
       6.258473301112e-03       2.540934922457e+03 
       6.380352005147e-03       2.567677235979e+03 
       6.502352299748e-03       2.593804591325e+03 
       6.624468296405e-03       2.619324021160e+03 
       6.746694517354e-03       2.644242611293e+03 
       6.869025862694e-03       2.668567486384e+03 
       6.991457580567e-03       2.692305801721e+03 
       7.113985240067e-03       2.715464734731e+03 
       7.236604706620e-03       2.738051476127e+03 
       7.359312119568e-03       2.760073222849e+03 
       7.482103871748e-03       2.781537167772e+03 
       7.604976590866e-03       2.802450490125e+03 
       7.727927122487e-03       2.822820345384e+03 
       7.850952514482e-03       2.842653859399e+03 
       7.974050002809e-03       2.861958350892e+03 
       8.097216998477e-03       2.880741498984e+03 
       8.220451075598e-03       2.899009257446e+03 
       8.343749960424e-03       2.916768553117e+03 
       8.467111521276e-03       2.934026202772e+03 
       8.590533759283e-03       2.950788940924e+03 
       8.714014799858e-03       2.967063415438e+03 
       8.837552884852e-03       2.982856184727e+03 
       8.961146365319e-03       2.998173719527e+03 
       9.084793694841e-03       3.013022403518e+03 
       9.208493423364e-03       3.027408536336e+03 
       9.332244191505e-03       3.041338337313e+03 
       9.456044725288e-03       3.054817947476e+03 
       9.579893831272e-03       3.067853433438e+03 
       9.703790392040e-03       3.080450788241e+03 
       9.827733362020e-03       3.092615933060e+03 
       9.951721763611e-03       3.104354716667e+03 
       1.007575468359e-02       3.115672914446e+03 
       1.019983126978e-02       3.126576227357e+03 
       1.032395072795e-02       3.137070279866e+03 
       1.044811231892e-02       3.147160620236e+03 
       1.057231535594e-02       3.156852720369e+03 
       1.069655920215e-02       3.166151978401e+03 
       1.082084326829e-02       3.175063722510e+03 
       1.094516701055e-02       3.183593216358e+03 
       1.106952992857e-02       3.191745665766e+03 
       1.119393156357e-02       3.199526225448e+03 
       1.131837149665e-02       3.206940005580e+03 
       1.144284934711e-02       3.213992077186e+03 
       1.156736477101e-02       3.220687475361e+03 
       1.169191745976e-02       3.227031203218e+03 
       1.181650713878e-02       3.233028232228e+03 
       1.194113356635e-02       3.238683501186e+03 
       1.206579653244e-02       3.244001908389e+03 
       1.219049585768e-02       3.248988270668e+03 
       1.231523139238e-02       3.253647241771e+03 
       1.244000301563e-02       3.257983263662e+03 
       1.256481063447e-02       3.262000669472e+03 
       1.268965418311e-02       3.265703839951e+03 
       1.281453362221e-02       3.269097224177e+03 
       1.293944893819e-02       3.272185268250e+03 
       1.306440014266e-02       3.274972364937e+03 
       1.318938727183e-02       3.277462841424e+03 
       1.331441038599e-02       3.279660963616e+03 
       1.343946956903e-02       3.281570942896e+03 
       1.356456492802e-02       3.283196944746e+03 
       1.368969659277e-02       3.284543171233e+03 
       1.381486471554e-02       3.285613373709e+03 
       1.394006947064e-02       3.286411940504e+03 
       1.406531105418e-02       3.286942718333e+03 
       1.419058968379e-02       3.287209657059e+03 
       1.431590559840e-02       3.287216665322e+03 
       1.444125905802e-02       3.286967612601e+03 
       1.456665034359e-02       3.286466330391e+03 
       1.469207975680e-02       3.285716612968e+03 
       1.477104874446e-02       3.285119007594e+03 
       1.481754761999e-02       3.284722218060e+03 
       1.494305427604e-02       3.283486867457e+03 
       1.506860008831e-02       3.282014247526e+03 
       1.519418544056e-02       3.280308009756e+03 
       1.531981073694e-02       3.278371771088e+03 
       1.544547640197e-02       3.276209114491e+03 
       1.557118288056e-02       3.273823589341e+03 
       1.569693063803e-02       3.271218711814e+03 
       1.582272016018e-02       3.268397965250e+03 
       1.594855195335e-02       3.265364800441e+03 
       1.607442654448e-02       3.262122636121e+03 
       1.620034448127e-02       3.258674859233e+03 
       1.632630633226e-02       3.255024825307e+03 
       1.645231268701e-02       3.251175858643e+03 
       1.657836415623e-02       3.247131252817e+03 
       1.670446137196e-02       3.242894270984e+03 
       1.683060498778e-02       3.238468146121e+03 
       1.695679567902e-02       3.233856081629e+03 
       1.708303414296e-02       3.229061251435e+03 
       1.720932109912e-02       3.224086800631e+03 
       1.733565728948e-02       3.218935845794e+03 
       1.746204347876e-02       3.213611475427e+03 
       1.758848045475e-02       3.208116750465e+03 
       1.771496902858e-02       3.202454704537e+03 
       1.784151003506e-02       3.196628344612e+03 
       1.796810433304e-02       3.190640651169e+03 
       1.809475280574e-02       3.184494578674e+03 
       1.822145636114e-02       3.178193055959e+03 
       1.834821593237e-02       3.171738986363e+03 
       1.847503247814e-02       3.165135248007e+03 
       1.860190698314e-02       3.158384694054e+03 
       1.872884045849e-02       3.151490152702e+03 
       1.885583394222e-02       3.144454427421e+03 
       1.898288849973e-02       3.137280296827e+03 
       1.911000522429e-02       3.129970514764e+03 
       1.923718523758e-02       3.122527810374e+03 
       1.936442969020e-02       3.114954887912e+03 
       1.949173976222e-02       3.107254426855e+03 
       1.961911666380e-02       3.099429081579e+03 
       1.974656163572e-02       3.091481481758e+03 
       1.987407595005e-02       3.083414232074e+03 
       2.000166091075e-02       3.075229912169e+03 
       2.012931785434e-02       3.066931077008e+03 
       2.025704815058e-02       3.058520256641e+03 
       2.038485320317e-02       3.049999956376e+03 
       2.051273445045e-02       3.041372657052e+03 
       2.064069336620e-02       3.032640815100e+03 
       2.076873146035e-02       3.023806862539e+03 
       2.089685027983e-02       3.014873207398e+03 
       2.102505140934e-02       3.005842233764e+03 
       2.115333647224e-02       2.996716301853e+03 
       2.128170713139e-02       2.987497748350e+03 
       2.141016509008e-02       2.978188886441e+03 
       2.153871209293e-02       2.968792005894e+03 
       2.166734992688e-02       2.959309373247e+03 
       2.179608042216e-02       2.949743231727e+03 
       2.192490545330e-02       2.940095801465e+03 
       2.205382694022e-02       2.930369279499e+03 
       2.218284684928e-02       2.920565839684e+03 
       2.231196719440e-02       2.910687632815e+03 
       2.244119003823e-02       2.900736786569e+03 
       2.257051749334e-02       2.890715405467e+03 
       2.269995172345e-02       2.880625570764e+03 
       2.282949494468e-02       2.870469340745e+03 
       2.295914942688e-02       2.860248750356e+03 
       2.308891749494e-02       2.849965811366e+03 
       2.321880153025e-02       2.839622512343e+03 
       2.334880397206e-02       2.829220818640e+03 
       2.347892731904e-02       2.818762672435e+03 
       2.360917413073e-02       2.808249992415e+03 
       2.373954702919e-02       2.797684674488e+03 
       2.387004870059e-02       2.787068591239e+03 
       2.400068189691e-02       2.776403592083e+03 
       2.413144943767e-02       2.765691503106e+03 
       2.426235421175e-02       2.754934127718e+03 
       2.439339917923e-02       2.744133246146e+03 
       2.452458737330e-02       2.733290615481e+03 
       2.465592190225e-02       2.722407970090e+03 
       2.478740595154e-02       2.711487021293e+03 
       2.491904278590e-02       2.700529457484e+03 
       2.505083575151e-02       2.689536944500e+03 
       2.518278827828e-02       2.678511125415e+03 
       2.531490388220e-02       2.667453620360e+03 
       2.544718616775e-02       2.656366027188e+03 
       2.557963883042e-02       2.645249920875e+03 
       2.571226565928e-02       2.634106854141e+03 
       2.584507053972e-02       2.622938357178e+03 
       2.597805745617e-02       2.611745937672e+03 
       2.611123049504e-02       2.600531081206e+03 
       2.624459384768e-02       2.589295250705e+03 
       2.637815181344e-02       2.578039887070e+03 
       2.651190880296e-02       2.566766408887e+03 
       2.664586934140e-02       2.555476212320e+03 
       2.678003807195e-02       2.544170671407e+03 
       2.691441975940e-02       2.532851138043e+03 
       2.704901929380e-02       2.521518941726e+03 
       2.718384169437e-02       2.510175389661e+03 
       2.731889211345e-02       2.498821767037e+03 
       2.745417584068e-02       2.487459336585e+03 
       2.758969830726e-02       2.476089338990e+03 
       2.772546509049e-02       2.464712992598e+03 
       2.786148191835e-02       2.453331493672e+03 
       2.799775467439e-02       2.441946016365e+03 
       2.813428940271e-02       2.430557712652e+03 
       2.827109231322e-02       2.419167712645e+03 
       2.840816978705e-02       2.407777124570e+03 
       2.854552838224e-02       2.396387034461e+03 
       2.868317483957e-02       2.384998507052e+03 
       2.882111608878e-02       2.373612585184e+03 
       2.895935925487e-02       2.362230289974e+03 
       2.909791166484e-02       2.350852621384e+03 
       2.923678085455e-02       2.339480557635e+03 
       2.937597457603e-02       2.328115055820e+03 
       2.951550080497e-02       2.316757051599e+03 
       2.965536774866e-02       2.305407459392e+03 
       2.979558385416e-02       2.294067172636e+03 
       2.993615781689e-02       2.282737063297e+03 
       3.007709858965e-02       2.271417982456e+03 
       3.021841539195e-02       2.260110760003e+03 
       3.036011771982e-02       2.248816204593e+03 
       3.050221535609e-02       2.237535104211e+03 
       3.064471838109e-02       2.226268225373e+03 
       3.078763718387e-02       2.215016313974e+03 
       3.093098247402e-02       2.203780094645e+03 
       3.107476529389e-02       2.192560271342e+03 
       3.121899703162e-02       2.181357527155e+03 
       3.136368943456e-02       2.170172524264e+03 
       3.150885462358e-02       2.159005904297e+03 
       3.165450510791e-02       2.147858287967e+03 
       3.180065380081e-02       2.136730275856e+03 
       3.194731403603e-02       2.125622447612e+03 
       3.209449958506e-02       2.114535362721e+03 
       3.224222467535e-02       2.103469560024e+03 
       3.239050400938e-02       2.092425558213e+03 
       3.253935278482e-02       2.081403855758e+03 
       3.268878671573e-02       2.070404930504e+03 
       3.283882205488e-02       2.059429240205e+03 
       3.298947561729e-02       2.048477222369e+03 
       3.314076480510e-02       2.037549294070e+03 
       3.329270763380e-02       2.026645852222e+03 
       3.344532275986e-02       2.015767273127e+03 
       3.359862951009e-02       2.004913912747e+03 
       3.375264791249e-02       1.994086106622e+03 
       3.390739872907e-02       1.983284169772e+03 
       3.406290349045e-02       1.972508396414e+03 
       3.421918453262e-02       1.961759060309e+03 
       3.437626503587e-02       1.951036414450e+03 
       3.453416906604e-02       1.940340690978e+03 
       3.469292161842e-02       1.929672101149e+03 
       3.485254866424e-02       1.919030835408e+03 
       3.501307720025e-02       1.908417063179e+03 
       3.517453530131e-02       1.897830932603e+03 
       3.533695217649e-02       1.887272570619e+03 
       3.550035822878e-02       1.876742083273e+03 
       3.566478511879e-02       1.866239554793e+03 
       3.583026583273e-02       1.855765048027e+03 
       3.599683475494e-02       1.845318604071e+03 
       3.616452774554e-02       1.834900242309e+03 
       3.633338222342e-02       1.824509959929e+03 
       3.650343725511e-02       1.814147731909e+03 
       3.667473365006e-02       1.803813510499e+03 
       3.684731406284e-02       1.793507225391e+03 
       3.702122310288e-02       1.783228782990e+03 
       3.719650745245e-02       1.772978065993e+03 
       3.737321599353e-02       1.762754933338e+03 
       3.755139994458e-02       1.752559219367e+03 
       3.773111300788e-02       1.742390733639e+03 
       3.791241152868e-02       1.732249260043e+03 
       3.809535466709e-02       1.722134556611e+03 
       3.828000458410e-02       1.712046354039e+03 
       3.846642664309e-02       1.701984356253e+03 
       3.865468962831e-02       1.691948238690e+03 
       3.884486598215e-02       1.681937647869e+03 
       3.903703206314e-02       1.671952200492e+03 
       3.923126842686e-02       1.661991482735e+03 
       3.942766013214e-02       1.652055049034e+03 
       3.962629707544e-02       1.642142421291e+03 
       3.982727435647e-02       1.632253087481e+03 
       4.003069267856e-02       1.622386500790e+03 
       4.023665878780e-02       1.612542077901e+03 
       4.044528595549e-02       1.602719197636e+03 
       4.065669450903e-02       1.592917199264e+03 
       4.087101241719e-02       1.583135380534e+03 
       4.108837593639e-02       1.573372995656e+03 
       4.130893032583e-02       1.563629252605e+03 
       4.153283064009e-02       1.553903311020e+03 
       4.176024260965e-02       1.544194278797e+03 
       4.199134362077e-02       1.534501208718e+03 
       4.222632380862e-02       1.524823095211e+03 
       4.246538727914e-02       1.515158869743e+03 
       4.270875347816e-02       1.505507396118e+03 
       4.295665872915e-02       1.495867465619e+03 
       4.320935796458e-02       1.486237790946e+03 
       4.346712668042e-02       1.476616998996e+03 
       4.373026314841e-02       1.467003623597e+03 
       4.399909092712e-02       1.457396096504e+03 
       4.427396172041e-02       1.447792736671e+03 
       4.455525864125e-02       1.438191738433e+03 
       4.484339995008e-02       1.428591157083e+03 
       4.513884335077e-02       1.418988891620e+03 
       4.544209094414e-02       1.409382664570e+03 
       4.575369496007e-02       1.399769997476e+03 
       4.607426441502e-02       1.390148180968e+03 
       4.640447287400e-02       1.380514239071e+03 
       4.674506753649e-02       1.370864885117e+03 
       4.709687991594e-02       1.361196466943e+03 
       4.746083844638e-02       1.351504899951e+03 
       4.783798342953e-02       1.341785581233e+03 
       4.822948483797e-02       1.332033282456e+03 
       4.863666361885e-02       1.322242010113e+03 
       4.906101730765e-02       1.312404826082e+03 
       4.950425097161e-02       1.302513612069e+03 
       4.996831476959e-02       1.292558759015e+03 
       5.045544975517e-02       1.282528751806e+03 
       5.096824397692e-02       1.272409611337e+03 
       5.150970146111e-02       1.262184131854e+03 
       5.208332730474e-02       1.251830831144e+03 
       5.269323285071e-02       1.241322488748e+03 
       5.334426570327e-02       1.230624088597e+03 
       5.404217001095e-02       1.219689897034e+03 
       5.479378262614e-02       1.208459272443e+03 
       5.560726966154e-02       1.196850625092e+03 
       5.649240403743e-02       1.184752683786e+03 
