# dimensionless total [l(l+1)/2pi] C_l's
# for l=2 to 3100, i.e. number of multipoles equal to 3099
#
# -> if you prefer output in CAMB/HealPix/LensPix units/order, set 'format' to 'camb' in input file
# -> if you don't want to see such a header, set 'headers' to 'no' in input file
# -> for CMB lensing (phi), these are C_l^phi-phi for the lensing potential.
#    Remember the conversion factors:
#    C_l^dd (deflection) = l(l+1) C_l^phi-phi
#    C_l^gg (shear/convergence) = 1/4 (l(l+1))^2 C_l^phi-phi
#
# 1:l     2:TT                     3:EE                     4:TE                     5:BB                     6:phiphi                 7:TPhi                   8:Ephi               
    2       1.530281394509e-10       2.695695149613e-15       3.736226018448e-13       0.000000000000e+00       1.210849680218e-08       4.853336266933e-10      -1.525415018190e-12 
    3       1.428072064804e-10       4.031225120009e-15       4.297424515840e-13       0.000000000000e+00       7.541504976297e-09       3.528824218442e-10      -1.193410887126e-12 
    4       1.340062244754e-10       4.215086013487e-15       4.202908415850e-13       0.000000000000e+00       5.319830734675e-09       2.711526373554e-10      -8.391967174054e-13 
    5       1.276183579077e-10       3.553821283982e-15       3.818580063221e-13       0.000000000000e+00       4.015670618826e-09       2.165941513662e-10      -5.395898562544e-13 
    6       1.232031931692e-10       2.623373170922e-15       3.342006510083e-13       0.000000000000e+00       3.163694241277e-09       1.779803822763e-10      -3.107874805178e-13 
    7       1.201295413567e-10       1.854964974572e-15       2.900185973955e-13       0.000000000000e+00       2.569861573660e-09       1.493974227585e-10      -1.496956599639e-13 
    8       1.180489932661e-10       1.397544471178e-15       2.566551650377e-13       0.000000000000e+00       2.136655781133e-09       1.274382179272e-10      -4.583035317683e-14 
    9       1.166636067055e-10       1.196404392241e-15       2.362324302469e-13       0.000000000000e+00       1.809450972597e-09       1.100782399864e-10       1.113057904126e-14 
   10       1.158083361805e-10       1.135482659012e-15       2.273822993619e-13       0.000000000000e+00       1.556289946890e-09       9.614455030445e-11       3.124612278327e-14 
   11       1.153912032743e-10       1.136245174723e-15       2.276628782496e-13       0.000000000000e+00       1.280139000922e-09       8.405399134928e-11       2.488190746125e-14 
   12       1.152961076659e-10       1.180436725256e-15       2.346166327668e-13       0.000000000000e+00       1.121590034981e-09       7.458777709627e-11       3.344856275874e-15 
   13       1.153909668539e-10       1.283761525855e-15       2.459260618358e-13       0.000000000000e+00       9.912353590543e-10       6.649305764087e-11      -2.316163549563e-14 
   14       1.157048374111e-10       1.462344611704e-15       2.594526470067e-13       0.000000000000e+00       8.824114611538e-10       5.978596043325e-11      -4.740166867469e-14 
   15       1.161705881981e-10       1.716945973139e-15       2.735383196339e-13       0.000000000000e+00       7.905144206945e-10       5.397634413156e-11      -6.478514790805e-14 
   16       1.167304959855e-10       2.036469847876e-15       2.872219013276e-13       0.000000000000e+00       7.125368396474e-10       4.898140753787e-11      -7.345101792497e-14 
   17       1.174539421174e-10       2.408970295440e-15       2.998713846395e-13       0.000000000000e+00       6.453047119102e-10       4.460736533891e-11      -7.402143862892e-14 
   18       1.182280539080e-10       2.828387496367e-15       3.112185665256e-13       0.000000000000e+00       5.868787941484e-10       4.066483020350e-11      -6.860270588219e-14 
   19       1.190561514785e-10       3.294536258822e-15       3.213817010637e-13       0.000000000000e+00       5.364507737636e-10       3.717493055814e-11      -5.967335685533e-14 
   20       1.199406260516e-10       3.807641186483e-15       3.305928198990e-13       0.000000000000e+00       4.919273258956e-10       3.412964583136e-11      -5.028162752584e-14 
   21       1.208876768748e-10       4.365694433918e-15       3.390357387726e-13       0.000000000000e+00       4.526306173354e-10       3.147001138333e-11      -4.223292377359e-14 
   22       1.218714752830e-10       4.965273865366e-15       3.468578597590e-13       0.000000000000e+00       4.176996459598e-10       2.907725657214e-11      -3.686166594564e-14 
   23       1.228969247290e-10       5.603407018607e-15       3.540996210295e-13       0.000000000000e+00       3.866739975796e-10       2.692179590929e-11      -3.439098535425e-14 
   24       1.239556906159e-10       6.277270683715e-15       3.607151690819e-13       0.000000000000e+00       3.588348890360e-10       2.497801036045e-11      -3.446797510103e-14 
   25       1.250498148808e-10       6.986177092325e-15       3.665491908910e-13       0.000000000000e+00       3.338460948371e-10       2.323579499292e-11      -3.639551602368e-14 
   26       1.261677087907e-10       7.730095871768e-15       3.713649421122e-13       0.000000000000e+00       3.112482568655e-10       2.167069970100e-11      -3.915485621045e-14 
   27       1.273059533607e-10       8.508286432719e-15       3.749333532285e-13       0.000000000000e+00       2.907910320465e-10       2.025436783770e-11      -4.164200425846e-14 
   28       1.284540511667e-10       9.319950118155e-15       3.770258426942e-13       0.000000000000e+00       2.721498798737e-10       1.894901646690e-11      -4.276869718463e-14 
   29       1.296218273365e-10       1.016497606346e-14       3.775824831492e-13       0.000000000000e+00       2.552322239072e-10       1.775040785713e-11      -4.240902656138e-14 
   30       1.308129973842e-10       1.104368485731e-14       3.765939837872e-13       0.000000000000e+00       2.398496266856e-10       1.665475294226e-11      -4.080089894340e-14 
   31       1.320198536788e-10       1.195659979540e-14       3.740646937218e-13       0.000000000000e+00       2.256823973542e-10       1.564950380136e-11      -3.829365829083e-14 
   32       1.332457816966e-10       1.290396937861e-14       3.700561489142e-13       0.000000000000e+00       2.126629303071e-10       1.473106540037e-11      -3.532297455931e-14 
   33       1.344882968123e-10       1.388611594869e-14       3.646598884684e-13       0.000000000000e+00       2.007096440143e-10       1.389189060015e-11      -3.244327182946e-14 
   34       1.357378759869e-10       1.490337954876e-14       3.579697679988e-13       0.000000000000e+00       1.896658133326e-10       1.311887030261e-11      -3.020847346275e-14 
   35       1.369994699737e-10       1.595540372296e-14       3.500237521632e-13       0.000000000000e+00       1.794757960500e-10       1.240695571086e-11      -2.870181906157e-14 
   36       1.382767143994e-10       1.704161782376e-14       3.408402118661e-13       0.000000000000e+00       1.700553222190e-10       1.174919700716e-11      -2.784077306469e-14 
   37       1.395682795783e-10       1.816144145932e-14       3.304242422118e-13       0.000000000000e+00       1.612794232297e-10       1.113576430829e-11      -2.749745156572e-14 
   38       1.408778780942e-10       1.931432209107e-14       3.187412627300e-13       0.000000000000e+00       1.531263578530e-10       1.056478432738e-11      -2.750005406093e-14 
   39       1.422063144803e-10       2.049972003232e-14       3.057317463345e-13       0.000000000000e+00       1.455723289209e-10       1.003445199198e-11      -2.762550771240e-14 
   40       1.435479756610e-10       2.171710645390e-14       2.913157776633e-13       0.000000000000e+00       1.385478263449e-10       9.539772529774e-12      -2.759428464553e-14 
   41       1.448944237111e-10       2.296596718157e-14       2.754149942978e-13       0.000000000000e+00       1.319622743849e-10       9.074453794114e-12      -2.714604722073e-14 
   42       1.462481412701e-10       2.424580035069e-14       2.580317053228e-13       0.000000000000e+00       1.257972486109e-10       8.637993810666e-12      -2.630515282501e-14 
   43       1.476121680991e-10       2.555612864769e-14       2.391922345391e-13       0.000000000000e+00       1.200368648345e-10       8.230431567409e-12      -2.519531149465e-14 
   44       1.489858943500e-10       2.689650782650e-14       2.189249368144e-13       0.000000000000e+00       1.146397496623e-10       7.850248259383e-12      -2.396937700769e-14 
   45       1.503671246753e-10       2.826647960898e-14       1.972600362973e-13       0.000000000000e+00       1.095539942803e-10       7.495052718817e-12      -2.278122430523e-14 
   46       1.517598496022e-10       2.966539906305e-14       1.742298206688e-13       0.000000000000e+00       1.047721402443e-10       7.164186979190e-12      -2.168726154559e-14 
   47       1.531681888469e-10       3.109256610733e-14       1.498679727519e-13       0.000000000000e+00       1.002891722205e-10       6.856679570585e-12      -2.071842953481e-14 
   48       1.545939584378e-10       3.254727731584e-14       1.242091281868e-13       0.000000000000e+00       9.608592891467e-11       6.570417997706e-12      -1.990752290102e-14 
   49       1.560364523875e-10       3.402882901713e-14       9.728857125693e-14       0.000000000000e+00       9.212804733883e-11       6.302066273957e-12      -1.928920789020e-14 
   50       1.574938082014e-10       3.553652451200e-14       6.913432283056e-14       0.000000000000e+00       8.837643340718e-11       6.047991726687e-12      -1.888550900826e-14 
   51       1.589680468859e-10       3.706969084659e-14       3.974157800665e-14       0.000000000000e+00       8.482447361426e-11       5.807533311521e-12      -1.865758338686e-14 
   52       1.604610236009e-10       3.862767194919e-14       9.090804074241e-15       0.000000000000e+00       8.146909914662e-11       5.580477897618e-12      -1.854088687534e-14 
   53       1.619728230098e-10       4.020982812426e-14      -2.284590452347e-14       0.000000000000e+00       7.829964122177e-11       5.366094392629e-12      -1.845791086971e-14 
   54       1.635016154852e-10       4.181553934545e-14      -5.610548838077e-14       0.000000000000e+00       7.529731777051e-11       5.163098771900e-12      -1.831751628938e-14 
   55       1.650450326260e-10       4.344416064962e-14      -9.072122182863e-14       0.000000000000e+00       7.244104063860e-11       4.970055934969e-12      -1.803872205748e-14 
   56       1.666050233778e-10       4.509486779925e-14      -1.266793970876e-13       0.000000000000e+00       6.972770252355e-11       4.786782293720e-12      -1.763051662581e-14 
   57       1.681839524099e-10       4.676677904710e-14      -1.639530394094e-13       0.000000000000e+00       6.715603063218e-11       4.613230363128e-12      -1.713070675402e-14 
   58       1.697831037402e-10       4.845900107152e-14      -2.025144662473e-13       0.000000000000e+00       6.472044645898e-11       4.449064900683e-12      -1.658348062633e-14 
   59       1.714025961352e-10       5.017063040323e-14      -2.423354287929e-13       0.000000000000e+00       6.241079872243e-11       4.293644954833e-12      -1.603969460110e-14 
   60       1.730412985091e-10       5.190075485200e-14      -2.833872535113e-13       0.000000000000e+00       6.021209630126e-11       4.146005913424e-12      -1.555715996045e-14 
   61       1.746978229835e-10       5.364844397341e-14      -3.256422639729e-13       0.000000000000e+00       5.810872144327e-11       4.005133796744e-12      -1.518668748276e-14 
   62       1.763739559281e-10       5.541271474055e-14      -3.690780990878e-13       0.000000000000e+00       5.609877867251e-11       3.870900694115e-12      -1.492591200801e-14 
   63       1.780718504341e-10       5.719256066370e-14      -4.136746197147e-13       0.000000000000e+00       5.418250739667e-11       3.743308396284e-12      -1.475556497383e-14 
   64       1.797929672047e-10       5.898696312801e-14      -4.594128924473e-13       0.000000000000e+00       5.235796340714e-11       3.622206171908e-12      -1.465264013003e-14 
   65       1.815380241481e-10       6.079489247251e-14      -5.062753717735e-13       0.000000000000e+00       5.062089397094e-11       3.507282088689e-12      -1.459022839473e-14 
   66       1.833069459709e-10       6.261530906909e-14      -5.542460822340e-13       0.000000000000e+00       4.896461292272e-11       3.398054334519e-12      -1.453735271041e-14 
   67       1.850988137709e-10       6.444716440150e-14      -6.033108005812e-13       0.000000000000e+00       4.737987575665e-11       3.293862538615e-12      -1.445880290004e-14 
   68       1.869125889512e-10       6.628934984977e-14      -6.534539493577e-13       0.000000000000e+00       4.585738050041e-11       3.194042484105e-12      -1.432296141265e-14 
   69       1.887495679692e-10       6.814052858099e-14      -7.046481395298e-13       0.000000000000e+00       4.439613798417e-11       3.098510754407e-12      -1.412749105729e-14 
   70       1.906113367168e-10       6.999927137699e-14      -7.568628264186e-13       0.000000000000e+00       4.299658101091e-11       3.007283504821e-12      -1.387857952359e-14 
   71       1.924990101537e-10       7.186410566118e-14      -8.100675070917e-13       0.000000000000e+00       4.165803192190e-11       2.920299635762e-12      -1.358344755271e-14 
   72       1.944132017052e-10       7.373351524004e-14      -8.642318184151e-13       0.000000000000e+00       4.037864484423e-11       2.837416804217e-12      -1.325038816398e-14 
   73       1.963539926580e-10       7.560594004473e-14      -9.193256351051e-13       0.000000000000e+00       3.915534793832e-11       2.758407435207e-12      -1.288880588158e-14 
   74       1.983209015573e-10       7.747977587252e-14      -9.753191677805e-13       0.000000000000e+00       3.798378564537e-11       2.682954733244e-12      -1.250925596118e-14 
   75       2.003128536034e-10       7.935337412841e-14      -1.032183061014e-12       0.000000000000e+00       3.685826093493e-11       2.610648693787e-12      -1.212348361665e-14 
   76       2.023287635407e-10       8.122510278276e-14      -1.089886868213e-12       0.000000000000e+00       3.577317107307e-11       2.541080445775e-12      -1.174238713784e-14 
   77       2.043694746858e-10       8.309354264891e-14      -1.148393938439e-12       0.000000000000e+00       3.472774485752e-11       2.474153957569e-12      -1.136939171525e-14 
   78       2.064361195333e-10       8.495732659445e-14      -1.207665770981e-12       0.000000000000e+00       3.372206832908e-11       2.409824189805e-12      -1.100593295344e-14 
   79       2.085295199007e-10       8.681508248103e-14      -1.267663619533e-12       0.000000000000e+00       3.275564119931e-11       2.348001866634e-12      -1.065342249394e-14 
   80       2.106501689052e-10       8.866543416115e-14      -1.328348556957e-12       0.000000000000e+00       3.182734972389e-11       2.288551503543e-12      -1.031324466964e-14 
   81       2.127982129404e-10       9.050700247503e-14      -1.389681540056e-12       0.000000000000e+00       3.093543957602e-11       2.231289435170e-12      -9.986753159163e-15 
   82       2.149734336537e-10       9.233840624737e-14      -1.451623474336e-12       0.000000000000e+00       3.007748871969e-11       2.175981843122e-12      -9.675267641212e-15 
   83       2.171752299225e-10       9.415826328423e-14      -1.514135278777e-12       0.000000000000e+00       2.925038028312e-11       2.122342783791e-12      -9.380070448958e-15 
   84       2.194029761971e-10       9.596515331009e-14      -1.577176982534e-12       0.000000000000e+00       2.845107453744e-11       2.070109680019e-12      -9.102113781468e-15 
   85       2.216572052622e-10       9.775749753615e-14      -1.640704701115e-12       0.000000000000e+00       2.767913129689e-11       2.019288495482e-12      -8.841092897290e-15 
   86       2.239385894193e-10       9.953366086185e-14      -1.704673275338e-12       0.000000000000e+00       2.693455788800e-11       1.969945778105e-12      -8.596212427580e-15 
   87       2.262475700292e-10       1.012919885113e-13      -1.769037242603e-12       0.000000000000e+00       2.621703372909e-11       1.922134149598e-12      -8.366454069051e-15 
   88       2.285843458147e-10       1.030308063904e-13      -1.833750885393e-12       0.000000000000e+00       2.552589663391e-11       1.875891635189e-12      -8.150568373758e-15 
   89       2.309488611624e-10       1.047484214440e-13      -1.898768279772e-12       0.000000000000e+00       2.486012911535e-11       1.831240993354e-12      -7.947066538877e-15 
   90       2.333407944258e-10       1.064431220134e-13      -1.964043343881e-12       0.000000000000e+00       2.421834468916e-11       1.788189045545e-12      -7.754212196493e-15 
   91       2.357595462267e-10       1.081131781929e-13      -2.029529886433e-12       0.000000000000e+00       2.359877417764e-11       1.746726005923e-12      -7.570013203378e-15 
   92       2.382042277584e-10       1.097568421875e-13      -2.095181655217e-12       0.000000000000e+00       2.299925201331e-11       1.706824811087e-12      -7.392213430775e-15 
   93       2.406739800743e-10       1.113723928399e-13      -2.160951645655e-12       0.000000000000e+00       2.241774017704e-11       1.668446993534e-12      -7.218735197776e-15 
   94       2.431690122943e-10       1.129582760990e-13      -2.226789802201e-12       0.000000000000e+00       2.185401990107e-11       1.631562768392e-12      -7.049100521955e-15 
   95       2.456896986435e-10       1.145129864362e-13      -2.292645059293e-12       0.000000000000e+00       2.130823025906e-11       1.596132742528e-12      -6.883209439681e-15 
   96       2.482362543204e-10       1.160350255088e-13      -2.358466088308e-12       0.000000000000e+00       2.078034697043e-11       1.562101067333e-12      -6.720906411441e-15 
   97       2.508087283421e-10       1.175229031232e-13      -2.424201335906e-12       0.000000000000e+00       2.027017608408e-11       1.529394858274e-12      -6.561978297533e-15 
   98       2.534069963904e-10       1.189751381982e-13      -2.489799062370e-12       0.000000000000e+00       1.977734766214e-11       1.497923614451e-12      -6.406152333761e-15 
   99       2.560307536572e-10       1.203902597286e-13      -2.555207379943e-12       0.000000000000e+00       1.930130946365e-11       1.467578638154e-12      -6.253094107128e-15 
  100       2.586795076907e-10       1.217668077490e-13      -2.620374291174e-12       0.000000000000e+00       1.884132062830e-11       1.438232454411e-12      -6.102405531529e-15 
  101       2.613525712408e-10       1.231033342967e-13      -2.685247727253e-12       0.000000000000e+00       1.839644536014e-11       1.409738230551e-12      -5.953622823442e-15 
  102       2.640490551050e-10       1.243984043756e-13      -2.749775586356e-12       0.000000000000e+00       1.796554661130e-11       1.381929195752e-12      -5.806214477627e-15 
  103       2.667678609741e-10       1.256505969195e-13      -2.813905771984e-12       0.000000000000e+00       1.754727976571e-11       1.354618060600e-12      -5.659579242815e-15 
  104       2.695079353254e-10       1.268585298101e-13      -2.877585760732e-12       0.000000000000e+00       1.714040374987e-11       1.327641917877e-12      -5.513240987438e-15 
  105       2.722690855740e-10       1.280209367036e-13      -2.940761156533e-12       0.000000000000e+00       1.674477583271e-11       1.301005102937e-12      -5.367467636202e-15 
  106       2.750512613471e-10       1.291366024269e-13      -3.003377011681e-12       0.000000000000e+00       1.636048005894e-11       1.274754639408e-12      -5.222732458162e-15 
  107       2.778542990480e-10       1.302043410628e-13      -3.065378312735e-12       0.000000000000e+00       1.598751902822e-11       1.248936401594e-12      -5.079524780523e-15 
