# dimensionless total lensed [l(l+1)/2pi] C_l's
# for l=2 to 2600, i.e. number of multipoles equal to 2599
#
# -> if you prefer output in CAMB/HealPix/LensPix units/order, set 'format' to 'camb' in input file
# -> if you don't want to see such a header, set 'headers' to 'no' in input file
# -> for CMB lensing (phi), these are C_l^phi-phi for the lensing potential.
#    Remember the conversion factors:
#    C_l^dd (deflection) = l(l+1) C_l^phi-phi
#    C_l^gg (shear/convergence) = 1/4 (l(l+1))^2 C_l^phi-phi
#
# 1:l     2:TT                     3:EE                     4:TE                     5:BB                     6:phiphi                 7:TPhi                   8:Ephi               
    2       2.936818927871e-10       5.388345214546e-15       4.578106585897e-13       2.163355274562e-19       9.467967413410e-09       9.938533126799e-10      -2.117077176138e-12 
    3       2.586239212080e-10       7.345510185431e-15       5.725092143730e-13       4.327016154427e-19       5.884320058701e-09       7.026408831094e-10      -1.619257489483e-12 
    4       2.287324227288e-10       6.702039214711e-15       5.434842081606e-13       7.212399223696e-19       4.116471903988e-09       5.310570395759e-10      -1.095222359237e-12 
    5       2.061937748967e-10       4.714736497040e-15       4.531824915043e-13       1.081998396661e-18       3.082266417593e-09       4.189538198586e-10      -6.320552822713e-13 
    6       1.895034089168e-10       2.738546987261e-15       3.546415283899e-13       1.515042739845e-18       2.411003453338e-09       3.405090057572e-10      -2.495765743017e-13 
    7       1.770792075002e-10       1.445138117569e-15       2.765929322557e-13       2.020459658914e-18       1.945107757569e-09       2.830540708860e-10       3.390436276030e-14 
    8       1.677939479140e-10       8.517881132765e-16       2.246815351583e-13       2.598360217295e-18       1.605985290887e-09       2.395875281972e-10       2.050107115948e-13 
    9       1.608700405221e-10       6.595500545480e-16       1.883156293385e-13       3.248883031744e-18       1.350450262109e-09       2.058509825830e-10       2.658264748451e-13 
   10       1.557493458080e-10       5.813136346927e-16       1.575488878066e-13       3.972197057410e-18       1.152740888803e-09       1.790617235022e-10       2.407334123176e-13 
   11       1.518915012843e-10       4.977087645400e-16       1.331338670170e-13       4.768503711936e-18       9.830861128983e-10       1.574658027805e-10       1.730617036274e-13 
   12       1.489357430696e-10       4.177023056029e-16       1.209623708123e-13       5.638038111720e-18       8.595846377815e-10       1.405790023841e-10       9.030824021235e-14 
   13       1.466809459257e-10       3.713095771021e-16       1.203161361775e-13       6.581069228392e-18       7.557770398650e-10       1.235004021274e-10       1.746294372840e-14 
   14       1.450288903250e-10       3.586647207372e-16       1.244652195524e-13       7.597898819829e-18       6.714044150318e-10       1.120156660438e-10      -2.704578806422e-14 
   15       1.439043425602e-10       3.619938331030e-16       1.293395480468e-13       8.688859045554e-18       5.987615721160e-10       1.001363762213e-10      -4.652808940312e-14 
   16       1.432231379324e-10       3.695145423990e-16       1.346829293916e-13       9.854308738685e-18       5.373194092903e-10       9.080914740586e-11      -4.958053246583e-14 
   17       1.429260172668e-10       3.838068703958e-16       1.405343365764e-13       1.109462837287e-17       4.851333731641e-10       8.238691503582e-11      -4.018290832337e-14 
   18       1.429351546089e-10       4.157795563273e-16       1.464597997436e-13       1.241021456300e-17       4.395961890661e-10       7.496776386618e-11      -2.732007572908e-14 
   19       1.432432961618e-10       4.706091355223e-16       1.527923789844e-13       1.380146913780e-17       4.000445855687e-10       6.865866696632e-11      -1.569706647908e-14 
   20       1.437744000056e-10       5.499047534748e-16       1.601327969784e-13       1.526879893370e-17       3.652948412089e-10       6.297399996442e-11      -8.232261445192e-15 
   21       1.445181074830e-10       6.511868703995e-16       1.686462334987e-13       1.681259726899e-17       3.347984853041e-10       5.782353685459e-11      -5.597571455368e-15 
   22       1.454353993193e-10       7.699811833194e-16       1.782406556010e-13       1.843324464103e-17       3.077116815109e-10       5.317411687693e-11      -7.258094879719e-15 
   23       1.465198035371e-10       9.053110217732e-16       1.885399521935e-13       2.013109123729e-17       2.836514696668e-10       4.901377997298e-11      -1.157501662300e-14 
   24       1.477423256928e-10       1.056849353085e-15       1.989597521410e-13       2.190645752349e-17       2.620874286507e-10       4.529097677330e-11      -1.627683748586e-14 
   25       1.490976695324e-10       1.223320476546e-15       2.088819338056e-13       2.375961917340e-17       2.427789696863e-10       4.198479431098e-11      -1.987181715929e-14 
   26       1.505662556122e-10       1.403383985214e-15       2.176873982167e-13       2.569080726068e-17       2.253856186747e-10       3.904281508846e-11      -2.120129589669e-14 
   27       1.521481064478e-10       1.598472600862e-15       2.252241671416e-13       2.770019827909e-17       2.096965189903e-10       3.638841597910e-11      -2.033320598650e-14 
   28       1.538343432631e-10       1.811071427698e-15       2.315213791960e-13       2.978791475453e-17       1.954335903686e-10       3.392490585711e-11      -1.785193293120e-14 
   29       1.556285599165e-10       2.043413871434e-15       2.366791677886e-13       3.195402806071e-17       1.825117595710e-10       3.165131067665e-11      -1.445747139337e-14 
   30       1.575192093386e-10       2.297910951556e-15       2.408701612819e-13       3.419854911504e-17       1.707761550849e-10       2.958128435845e-11      -1.106404484849e-14 
   31       1.594795778237e-10       2.576908891392e-15       2.442929456878e-13       3.652143197313e-17       1.599736016588e-10       2.770974747225e-11      -8.624217528090e-15 
   32       1.615117271627e-10       2.881180480150e-15       2.469994001363e-13       3.892260579611e-17       1.500584334097e-10       2.601674487536e-11      -7.343122196829e-15 
   33       1.636154272973e-10       3.210845187795e-15       2.490052359152e-13       4.140194768677e-17       1.409816116349e-10       2.446112258710e-11      -7.169752020424e-15 
   34       1.657801225274e-10       3.565925280664e-15       2.502979762810e-13       4.395928742579e-17       1.326357035270e-10       2.299371971260e-11      -7.942228935757e-15 
   35       1.680027546482e-10       3.947008005168e-15       2.507087842078e-13       4.659446654308e-17       1.249710476426e-10       2.161455978236e-11      -9.206819605167e-15 
   36       1.702737935320e-10       4.354798410387e-15       2.499916801583e-13       4.930729534629e-17       1.179086234471e-10       2.033392224258e-11      -1.031981875792e-14 
   37       1.725790574575e-10       4.789988017352e-15       2.479019584696e-13       5.209756446293e-17       1.113388724082e-10       1.915620225215e-11      -1.066225141616e-14 
   38       1.749264155422e-10       5.253419812594e-15       2.443608836030e-13       5.496514557151e-17       1.052431029905e-10       1.807830958153e-11      -1.024933866780e-14 
   39       1.773264969898e-10       5.745973783208e-15       2.393442887542e-13       5.790992289681e-17       9.960543926871e-11       1.708966152975e-11      -9.321230900014e-15 
   40       1.797847738735e-10       6.268521558472e-15       2.328394499344e-13       6.093176655505e-17       9.437656546721e-11       1.617178166074e-11      -8.185660762363e-15 
   41       1.823018541004e-10       6.821883055684e-15       2.248501902266e-13       6.403056559609e-17       8.949112644929e-11       1.530410376822e-11      -7.157501358388e-15 
   42       1.848759223059e-10       7.406681728390e-15       2.154123548387e-13       6.720633943010e-17       8.493379015474e-11       1.448521354257e-11      -6.342855398678e-15 
   43       1.875000801990e-10       8.023440596961e-15       2.045846592941e-13       7.045916311967e-17       8.068975564555e-11       1.371743132159e-11      -5.792326662627e-15 
   44       1.901609894414e-10       8.672616790254e-15       1.924458266173e-13       7.378914020530e-17       7.672477043756e-11       1.300075647983e-11      -5.560012859566e-15 
   45       1.928441619968e-10       9.354645420289e-15       1.790624520047e-13       7.719641566248e-17       7.299692253021e-11       1.233344936085e-11      -5.679512390205e-15 
   46       1.955529913456e-10       1.007009596676e-14       1.643786556533e-13       8.068121341108e-17       6.949983527598e-11       1.171446589852e-11      -6.083251790844e-15 
   47       1.982944911272e-10       1.081955606288e-14       1.482952340888e-13       8.424381433726e-17       6.622977669845e-11       1.114140338098e-11      -6.659140793215e-15 
   48       2.010737584999e-10       1.160358671896e-14       1.306991511459e-13       8.788454990481e-17       6.317270793910e-11       1.060962257337e-11      -7.271239040157e-15 
   49       2.038937692719e-10       1.242272120243e-14       1.114626809576e-13       9.160380529331e-17       6.030351672719e-11       1.011208872642e-11      -7.758429924297e-15 
   50       2.067556325055e-10       1.327741739642e-14       9.046905307377e-14       9.540199319127e-17       5.759351850781e-11       9.641283002037e-12      -7.979669892171e-15 
   51       2.096599111029e-10       1.416790222905e-14       6.769958252073e-14       9.927945950858e-17       5.503713853647e-11       9.195917266214e-12      -7.967292828146e-15 
   52       2.126053055498e-10       1.509428308019e-14       4.316870881630e-14       1.032365574953e-16       5.263114734324e-11       8.775767124394e-12      -7.813026061419e-15 
   53       2.155880468705e-10       1.605658738137e-14       1.689994180156e-14       1.072736765654e-16       5.036665757022e-11       8.379700706331e-12      -7.625896973777e-15 
   54       2.186017133811e-10       1.705475930643e-14      -1.107374821061e-14       1.113912440541e-16       4.822874650776e-11       8.005617106096e-12      -7.533098624888e-15 
   55       2.216397670983e-10       1.808873593765e-14      -4.072350141820e-14       1.155896595335e-16       4.620086872562e-11       7.651129480789e-12      -7.647517221571e-15 
   56       2.247043206332e-10       1.915870550245e-14      -7.207012319511e-14       1.198690746271e-16       4.428024237651e-11       7.315954094658e-12      -7.958884902366e-15 
   57       2.277992272106e-10       2.026490749177e-14      -1.051491628070e-13       1.242295615745e-16       4.246562402313e-11       7.000006937667e-12      -8.417103178592e-15 
   58       2.309274762218e-10       2.140755859718e-14      -1.399980942298e-13       1.286711750287e-16       4.075266674571e-11       6.702679225837e-12      -8.962788177761e-15 
   59       2.340911159382e-10       2.258685249805e-14      -1.766564699412e-13       1.331939511862e-16       3.913372930519e-11       6.422804853938e-12      -9.526837379670e-15 
   60       2.372911762250e-10       2.380295964871e-14      -2.151660747121e-13       1.377979069164e-16       3.759768530657e-11       6.158627848163e-12      -1.002999635250e-14 
   61       2.405280645266e-10       2.505593024073e-14      -2.555602831586e-13       1.424829971581e-16       3.613296963806e-11       5.908276889830e-12      -1.040052147600e-14 
   62       2.438030325338e-10       2.634537811854e-14      -2.978289930121e-13       1.472489779036e-16       3.473794858379e-11       5.671386983311e-12      -1.063278112733e-14 
   63       2.471169030780e-10       2.767072521470e-14      -3.419460578299e-13       1.520955107758e-16       3.341254934432e-11       5.447785689646e-12      -1.074109918794e-14 
   64       2.504695648728e-10       2.903128889433e-14      -3.878792036478e-13       1.570221998959e-16       3.215514178482e-11       5.237002043312e-12      -1.074295787809e-14 
   65       2.538599102439e-10       3.042627867011e-14      -4.355898402156e-13       1.620285896894e-16       3.096245031471e-11       5.038250093880e-12      -1.065913866493e-14 
   66       2.572857728599e-10       3.185479291723e-14      -4.850328722317e-13       1.671141626911e-16       2.982946576720e-11       4.850412447691e-12      -1.051386317059e-14 
   67       2.607438654617e-10       3.331581558844e-14      -5.361565105784e-13       1.722783373510e-16       2.874935727893e-11       4.672023809509e-12      -1.033493408022e-14 
   68       2.642310020659e-10       3.480834615744e-14      -5.889125821051e-13       1.775205520948e-16       2.771526124055e-11       4.501640964735e-12      -1.014828308665e-14 
   69       2.677481913421e-10       3.633182736682e-14      -6.432903067538e-13       1.828405421907e-16       2.672626605322e-11       4.339076569864e-12      -9.960016916600e-15 
   70       2.712972646080e-10       3.788579865003e-14      -6.992890569089e-13       1.882381152984e-16       2.578248730981e-11       4.184386942642e-12      -9.770969775110e-15 
   71       2.748796358526e-10       3.946977069194e-14      -7.569085427259e-13       1.937130701892e-16       2.488325862595e-11       4.037501284203e-12      -9.581972328805e-15 
   72       2.784962723177e-10       4.108322555127e-14      -8.161488918717e-13       1.992651967573e-16       2.402709152661e-11       3.898215104126e-12      -9.393849571449e-15 
   73       2.821476650783e-10       4.272561678292e-14      -8.770107292642e-13       2.048942760317e-16       2.321163533257e-11       3.766183645486e-12      -9.207418689479e-15 
   74       2.858337996245e-10       4.439636956036e-14      -9.394952568131e-13       2.106000801871e-16       2.243363704698e-11       3.640915309916e-12      -9.023486927542e-15 
   75       2.895541264421e-10       4.609488079801e-14      -1.003604333160e-12       2.163823725557e-16       2.168890124186e-11       3.521765082652e-12      -8.842849454035e-15 
   76       2.933080112520e-10       4.782044472763e-14      -1.069333467222e-12       2.222410220130e-16       2.097331048008e-11       3.408082850365e-12      -8.666402378811e-15 
   77       2.970962455459e-10       4.957201368882e-14      -1.136649147522e-12       2.281763701899e-16       2.028619007898e-11       3.299704113528e-12      -8.495510317793e-15 
   78       3.009197593355e-10       5.134839373720e-14      -1.205507504415e-12       2.341889315554e-16       1.962748690023e-11       3.196537228208e-12      -8.331702289066e-15 
   79       3.047791466650e-10       5.314831393705e-14      -1.275860965026e-12       2.402792873018e-16       1.899674517835e-11       3.098413107995e-12      -8.176562730101e-15 
   80       3.086746460280e-10       5.497042495516e-14      -1.347658187683e-12       2.464480877015e-16       1.839308815433e-11       3.005081825252e-12      -8.031731724591e-15 
   81       3.126061207842e-10       5.681329765448e-14      -1.420843996346e-12       2.526960544637e-16       1.781519970933e-11       2.916209212377e-12      -7.898905229268e-15 
   82       3.165730395765e-10       5.867542168795e-14      -1.495359315041e-12       2.590239830915e-16       1.726130599833e-11       2.831373463058e-12      -7.779835300736e-15 
   83       3.205744567480e-10       6.055520409220e-14      -1.571141102290e-12       2.654327452388e-16       1.672915708379e-11       2.750061733526e-12      -7.676330322294e-15 
   84       3.246094193193e-10       6.245104528691e-14      -1.648127292752e-12       2.719232009191e-16       1.621656232830e-11       2.671788638842e-12      -7.589679865452e-15 
   85       3.286783083376e-10       6.436158462932e-14      -1.726272707021e-12       2.784959132485e-16       1.572313878329e-11       2.596481757327e-12      -7.518819227422e-15 
   86       3.327816850243e-10       6.628549317841e-14      -1.805535671384e-12       2.851513905148e-16       1.524882032000e-11       2.524154100310e-12      -7.461859613948e-15 
   87       3.369198717542e-10       6.822139980497e-14      -1.885873263428e-12       2.918901729494e-16       1.479332071514e-11       2.454786569111e-12      -7.416627146586e-15 
   88       3.410929396415e-10       7.016789108624e-14      -1.967241330630e-12       2.987128335698e-16       1.435612459143e-11       2.388326604952e-12      -7.380653419531e-15 
   89       3.453006961261e-10       7.212351120067e-14      -2.049594508944e-12       3.056199790205e-16       1.393647835811e-11       2.324686838864e-12      -7.351166056435e-15 
   90       3.495426725589e-10       7.408676182251e-14      -2.132886241383e-12       3.126122504155e-16       1.353338115153e-11       2.263743741607e-12      -7.325079267227e-15 
   91       3.538181117885e-10       7.605610201659e-14      -2.217068796612e-12       3.196903241795e-16       1.314557577563e-11       2.205336273573e-12      -7.298984404937e-15 
   92       3.581259557469e-10       7.802994813292e-14      -2.302093287530e-12       3.268549128901e-16       1.277153964249e-11       2.149264534708e-12      -7.269140522514e-15 
   93       3.624651845424e-10       8.000668950500e-14      -2.387908794383e-12       3.341066389709e-16       1.240983927817e-11       2.095334424385e-12      -7.232289682162e-15 
   94       3.668359190403e-10       8.198473847403e-14      -2.474459542851e-12       3.414456322129e-16       1.206027450799e-11       2.043502236922e-12      -7.188263662589e-15 
   95       3.712384619296e-10       8.396248772862e-14      -2.561687333938e-12       3.488718729953e-16       1.172289040744e-11       1.993749418255e-12      -7.137753665448e-15 
   96       3.756729535049e-10       8.593829528172e-14      -2.649532407837e-12       3.563853131485e-16       1.139762505576e-11       1.946037784800e-12      -7.081522348049e-15 
   97       3.801393640773e-10       8.791048458223e-14      -2.737933450228e-12       3.639858750505e-16       1.108430546705e-11       1.900308804931e-12      -7.020405701425e-15 
   98       3.846374863853e-10       8.987734462666e-14      -2.826827598572e-12       3.716734507232e-16       1.078264352140e-11       1.856482880469e-12      -6.955314928396e-15 
   99       3.891669280063e-10       9.183713007070e-14      -2.916150448405e-12       3.794479009293e-16       1.049223189605e-11       1.814458628163e-12      -6.887238321632e-15 
  100       3.937271037672e-10       9.378806134085e-14      -3.005836059634e-12       3.873090542683e-16       1.021253999651e-11       1.774112161172e-12      -6.817243141715e-15 
  101       3.983172281558e-10       9.572832474607e-14      -3.095816962829e-12       3.952567062727e-16       9.942909887690e-12       1.735296370550e-12      -6.746477495205e-15 
  102       4.029363077320e-10       9.765607258935e-14      -3.186024165523e-12       4.032906185050e-16       9.682552225050e-12       1.697840206730e-12      -6.676172212701e-15 
  103       4.075831335382e-10       9.956942327937e-14      -3.276387158498e-12       4.114105176538e-16       9.430542185733e-12       1.661547961005e-12      -6.607642726906e-15 
  104       4.122565469386e-10       1.014665126386e-13      -3.366835133839e-12       4.196162914586e-16       9.186025815159e-12       1.626241621708e-12      -6.542017027685e-15 
  105       4.169562943774e-10       1.033456554811e-13      -3.457300812900e-12       4.279086085739e-16       8.948879576156e-12       1.591896006650e-12      -6.479373629108e-15 
  106       4.216822744752e-10       1.052052061711e-13      -3.547717149580e-12       4.362883811448e-16       8.719132724547e-12       1.558520630566e-12      -6.419490113465e-15 
  107       4.264342703839e-10       1.070435100418e-13      -3.638016184123e-12       4.447565767004e-16       8.496763114371e-12       1.526118018300e-12      -6.362105537203e-15 
