# dimensionless total lensed [l(l+1)/2pi] C_l's
# for l=2 to 2600, i.e. number of multipoles equal to 2599
#
# -> if you prefer output in CAMB/HealPix/LensPix units/order, set 'format' to 'camb' in input file
# -> if you don't want to see such a header, set 'headers' to 'no' in input file
# -> for CMB lensing (phi), these are C_l^phi-phi for the lensing potential.
#    Remember the conversion factors:
#    C_l^dd (deflection) = l(l+1) C_l^phi-phi
#    C_l^gg (shear/convergence) = 1/4 (l(l+1))^2 C_l^phi-phi
#
# 1:l     2:TT                     3:EE                     4:TE                     5:BB                     6:phiphi                 7:TPhi                   8:Ephi               
    2       2.710972305086e-10       6.028582889294e-15       5.977331774209e-13       1.886648831491e-19       1.096141129486e-08       1.037372057182e-09      -1.933808473300e-12 
    3       2.276237807028e-10       8.051082686554e-15       6.645694752927e-13       3.772867202211e-19       6.739662933197e-09       6.974040540162e-10      -1.427529411844e-12 
    4       1.971776723548e-10       7.295211806126e-15       5.981492970182e-13       6.287223422682e-19       4.632473276515e-09       5.066227665988e-10      -9.490313730132e-13 
    5       1.762929406312e-10       5.102844658296e-15       4.791390424835e-13       9.429329001085e-19       3.414777775480e-09       3.867678866079e-10      -5.688542585996e-13 
    6       1.616902789962e-10       2.942727853277e-15       3.582337983966e-13       1.319884875386e-18       2.634665399687e-09       3.053542146805e-10      -2.801100758403e-13 
    7       1.512948947327e-10       1.541948176418e-15       2.600398855134e-13       1.759558828592e-18       2.098987693338e-09       2.470809249187e-10      -7.695204745496e-14 
    8       1.438727098964e-10       8.895597578266e-16       1.898920922177e-13       2.261958697612e-18       1.713473050266e-09       2.037945223868e-10       4.410435023759e-14 
    9       1.385051999299e-10       6.567403063101e-16       1.450100743128e-13       2.827121092141e-18       1.426494666428e-09       1.706888379459e-10       9.365706150776e-14 
   10       1.346775493355e-10       5.581439538054e-16       1.206661074425e-13       3.455124013136e-18       1.206805986417e-09       1.447883968470e-10       9.049512408477e-14 
   11       1.320307304141e-10       4.766882520428e-16       1.116220150604e-13       4.146094438810e-18       1.015220155121e-09       1.243412137379e-10       5.717361046614e-14 
   12       1.302172202070e-10       4.107116274092e-16       1.125552395464e-13       4.900214259311e-18       8.783826160726e-10       1.073798395264e-10       1.319180560779e-14 
   13       1.291281946048e-10       3.805160752145e-16       1.187288142480e-13       5.717724109571e-18       7.669414956421e-10       9.362701466865e-11      -2.592317394638e-14 
   14       1.286065358771e-10       3.824599069356e-16       1.266198519556e-13       6.598924741133e-18       6.749062661309e-10       8.201674493742e-11      -5.204525125127e-14 
   15       1.284669831195e-10       3.967871366459e-16       1.341646209013e-13       7.544175685058e-18       5.980111495753e-10       7.231376035723e-11      -6.245985223546e-14 
   16       1.287277435774e-10       4.114656173133e-16       1.405656624329e-13       8.553891084392e-18       5.330389650549e-10       6.414457955272e-11      -5.944289170405e-14 
   17       1.293050017606e-10       4.309259237144e-16       1.459310840923e-13       9.628532710501e-18       4.775760565268e-10       5.701701867600e-11      -4.800251979894e-14 
   18       1.301234755901e-10       4.682058431515e-16       1.508828920390e-13       1.076860184298e-17       4.298507974708e-10       5.087211959163e-11      -3.351166695272e-14 
   19       1.311748182360e-10       5.293271602552e-16       1.561262258038e-13       1.197461961756e-17       3.889831041836e-10       4.564940255665e-11      -1.994252316179e-14 
   20       1.323915015904e-10       6.162872526550e-16       1.623810353752e-13       1.324712947607e-17       3.531797555825e-10       4.110571695025e-11      -1.098882096082e-14 
   21       1.337774479131e-10       7.261531483946e-16       1.698724232608e-13       1.458666067090e-17       3.218360087410e-10       3.715024524101e-11      -7.388550087954e-15 
   22       1.353154304838e-10       8.536927296631e-16       1.785330962916e-13       1.599373263827e-17       2.942101936421e-10       3.367511005486e-11      -8.424464595835e-15 
   23       1.369842425293e-10       9.977742500452e-16       1.879416367921e-13       1.746881883826e-17       2.698774951646e-10       3.062313441280e-11      -1.246889322853e-14 
   24       1.387378331305e-10       1.158061413204e-15       1.974605125941e-13       1.901235098305e-17       2.482073101707e-10       2.791500316573e-11      -1.728652913689e-14 
   25       1.405874224724e-10       1.332969278787e-15       2.065682256752e-13       2.062468543985e-17       2.289092994400e-10       2.551398466602e-11      -2.127099134176e-14 
   26       1.425412832170e-10       1.520744838955e-15       2.147532184935e-13       2.230610743093e-17       2.116060491791e-10       2.337254825306e-11      -2.306903499903e-14 
   27       1.445905668132e-10       1.722566219598e-15       2.217250744188e-13       2.405680690930e-17       1.960722533620e-10       2.146174216501e-11      -2.255958774225e-14 
   28       1.467098596825e-10       1.940752273018e-15       2.273084416582e-13       2.587688224228e-17       1.820222179326e-10       1.974492209660e-11      -2.015735581894e-14 
   29       1.489025628948e-10       2.177566943428e-15       2.315975321552e-13       2.776633564519e-17       1.693679168076e-10       1.820977164407e-11      -1.659137890130e-14 
   30       1.511663576259e-10       2.435565687682e-15       2.348322117797e-13       2.972506401395e-17       1.579533726758e-10       1.683538352370e-11      -1.289065527806e-14 
   31       1.534861323354e-10       2.717284004341e-15       2.372876782044e-13       3.175286532268e-17       1.475215972876e-10       1.558827516820e-11      -1.013391484089e-14 
   32       1.558624771646e-10       3.023598791745e-15       2.390587063685e-13       3.384948461985e-17       1.380083370966e-10       1.445918356289e-11      -8.563728387671e-15 
   33       1.582907538935e-10       3.354736321010e-15       2.401981836050e-13       3.601457216747e-17       1.293384460269e-10       1.343761185411e-11      -8.141594215206e-15 
   34       1.607587440758e-10       3.710787371117e-15       2.407267821292e-13       3.824769335364e-17       1.213805007815e-10       1.250647446263e-11      -8.720223047696e-15 
   35       1.632697374038e-10       4.092100306844e-15       2.404709200191e-13       4.054843014795e-17       1.140864852930e-10       1.166063023431e-11      -9.866557235020e-15 
   36       1.658256194687e-10       4.499004096127e-15       2.391633073076e-13       4.291630642756e-17       1.073897906081e-10       1.089352195573e-11      -1.096119779788e-14 
   37       1.684232396568e-10       4.931827399916e-15       2.365353456549e-13       4.535081104586e-17       1.011937455047e-10       1.019472166534e-11      -1.139809666512e-14 
   38       1.710660647703e-10       5.391352777018e-15       2.325014230251e-13       4.785158372352e-17       9.547753802193e-11       9.560435183255e-12      -1.114572839132e-14 
   39       1.737550929603e-10       5.878508494035e-15       2.270338333019e-13       5.041828825500e-17       9.021880942340e-11       8.985682374200e-12      -1.036903814697e-14 
   40       1.764848963231e-10       6.394248865972e-15       2.201142004610e-13       5.305056303799e-17       8.536158276017e-11       8.461008770865e-12      -9.283647910317e-15 
   41       1.792470099190e-10       6.939467305075e-15       2.117419694772e-13       5.574808481120e-17       8.083478183085e-11       7.975278663757e-12      -8.125663587665e-15 
   42       1.820429999021e-10       7.514697856909e-15       2.019617448598e-13       5.851078417443e-17       7.662201305072e-11       7.526041556940e-12      -7.040911994740e-15 
   43       1.848745472884e-10       8.120319002181e-15       1.908458729374e-13       6.133870068106e-17       7.270961659418e-11       7.111914639724e-12      -6.165502555868e-15 
   44       1.877394012724e-10       8.756629194250e-15       1.784884536084e-13       6.423192997348e-17       6.906580408244e-11       6.729557853424e-12      -5.657530143368e-15 
   45       1.906334415910e-10       9.423920225305e-15       1.649708929726e-13       6.719065289280e-17       6.565139222222e-11       6.374766342973e-12      -5.645976130815e-15 
   46       1.935584898091e-10       1.012273431135e-14       1.502435922088e-13       7.021522217612e-17       6.245919615927e-11       6.046500316790e-12      -6.056496338191e-15 
   47       1.965161916145e-10       1.085367604715e-14       1.342108289007e-13       7.330610962568e-17       5.948398356373e-11       5.743797896576e-12      -6.735498201678e-15 
   48       1.995055493723e-10       1.161734101279e-14       1.167623893511e-13       7.646388984305e-17       5.671062610617e-11       5.464553064719e-12      -7.496047684482e-15 
   49       2.025226853920e-10       1.241431566739e-14       9.777265983402e-14       7.968924630855e-17       5.411337156138e-11       5.205433393574e-12      -8.116005473833e-15 
   50       2.055630513162e-10       1.324510117019e-14       7.712567537553e-14       8.298292646697e-17       5.166328512020e-11       4.962794596588e-12      -8.398047262599e-15 
   51       2.086293125108e-10       1.410986071294e-14       5.480039000176e-14       8.634557850782e-17       4.935464326409e-11       4.735907706100e-12      -8.373255107168e-15 
   52       2.117251945964e-10       1.500860342003e-14       3.080698130941e-14       8.977788078961e-17       4.718444599622e-11       4.524465666493e-12      -8.149566944521e-15 
   53       2.148531056400e-10       1.594125082812e-14       5.163221245571e-15       9.328059255384e-17       4.514453848544e-11       4.327628551178e-12      -7.855746014006e-15 
   54       2.180140145337e-10       1.690763319996e-14      -2.210521110937e-14       9.685455760475e-17       4.322126760337e-11       4.143988201136e-12      -7.642429246558e-15 
   55       2.212079824145e-10       1.790759248499e-14      -5.097641654935e-14       1.005005783593e-16       4.139946584218e-11       3.971946575449e-12      -7.644874876048e-15 
   56       2.244361901407e-10       1.894132959796e-14      -8.147145317923e-14       1.042189929277e-16       3.967634886804e-11       3.811041878367e-12      -7.857966450400e-15 
   57       2.276992014555e-10       2.000913695515e-14      -1.136243436308e-13       1.080099994156e-16       3.805046881602e-11       3.660889932308e-12      -8.231993469468e-15 
   58       2.309962599893e-10       2.111129984485e-14      -1.474710793493e-13       1.118737750087e-16       3.651751833442e-11       3.520780505274e-12      -8.707797414824e-15 
   59       2.343251930826e-10       2.224809689624e-14      -1.830497753353e-13       1.158104746014e-16       3.507015572108e-11       3.389658068045e-12      -9.216327900874e-15 
   60       2.376823156071e-10       2.341980054830e-14      -2.204008248857e-13       1.198202294261e-16       3.369783005973e-11       3.266102551371e-12      -9.678198825985e-15 
   61       2.410639164983e-10       2.462656096156e-14      -2.595565530037e-13       1.239030529553e-16       3.238962020150e-11       3.148681615506e-12      -1.002136268097e-14 
   62       2.444713258451e-10       2.586802624332e-14      -3.005071126979e-13       1.280585370269e-16       3.114389195367e-11       3.037143390285e-12      -1.023977347586e-14 
   63       2.479068196692e-10       2.714363742195e-14      -3.432271734957e-13       1.322860847680e-16       2.996050811690e-11       2.931458530061e-12      -1.034716364415e-14 
   64       2.513720925286e-10       2.845273431657e-14      -3.876855723644e-13       1.365849930759e-16       2.883792825122e-11       2.831465018433e-12      -1.036021624410e-14 
   65       2.548682115580e-10       2.979455230756e-14      -4.338451352540e-13       1.409544483054e-16       2.777312943946e-11       2.736860713246e-12      -1.029869598527e-14 
   66       2.583955705091e-10       3.116821910727e-14      -4.816624986388e-13       1.453935219555e-16       2.676152705052e-11       2.647195891589e-12      -1.018558025512e-14 
   67       2.619538437906e-10       3.257275153057e-14      -5.310879310599e-13       1.499011663567e-16       2.579689550285e-11       2.561865794795e-12      -1.004719014550e-14 
   68       2.655425429756e-10       3.400718787866e-14      -5.820758683749e-13       1.544763552715e-16       2.487299063687e-11       2.480266072428e-12      -9.907655418723e-15 
   69       2.691629200014e-10       3.547102345816e-14      -6.346193972971e-13       1.591185484188e-16       2.398897568457e-11       2.402312353454e-12      -9.770714161641e-15 
   70       2.728163688157e-10       3.696385791370e-14      -6.887224706437e-13       1.638273137589e-16       2.314495745161e-11       2.328013045097e-12      -9.634443699760e-15 
   71       2.765038270271e-10       3.848526765758e-14      -7.443899056952e-13       1.686021903126e-16       2.234034690970e-11       2.257312519044e-12      -9.496586720214e-15 
   72       2.802257453534e-10       4.003480610875e-14      -8.016274797459e-13       1.734426875538e-16       2.157382347935e-11       2.190087822654e-12      -9.354537386290e-15 
   73       2.839820570702e-10       4.161200393185e-14      -8.604420256534e-13       1.783482848037e-16       2.084329931264e-11       2.126145390176e-12      -9.205327451947e-15 
   74       2.877721474599e-10       4.321636927611e-14      -9.208415273890e-13       1.833184306234e-16       2.014588357602e-11       2.065217753953e-12      -9.045612376337e-15 
   75       2.915948232596e-10       4.484738801440e-14      -9.828352155875e-13       1.883525422075e-16       1.947784673308e-11       2.006960255646e-12      -8.871657438320e-15 
   76       2.954488647554e-10       4.650444803459e-14      -1.046425160144e-12       1.934502192580e-16       1.883553047313e-11       1.951032726281e-12      -8.680833362429e-15 
   77       2.993348658277e-10       4.818659564668e-14      -1.111579066814e-12       1.986119319741e-16       1.821834801453e-11       1.897368992182e-12      -8.476448759599e-15 
   78       3.032536755001e-10       4.989273498317e-14      -1.178252670487e-12       2.038384580012e-16       1.762626857210e-11       1.845950768016e-12      -8.263777772340e-15 
   79       3.072058267585e-10       5.162169870887e-14      -1.246397720528e-12       2.091306828101e-16       1.705890418661e-11       1.796725526445e-12      -8.048645531856e-15 
   80       3.111915179474e-10       5.337224670256e-14      -1.315961901966e-12       2.144896034887e-16       1.651549339881e-11       1.749604951691e-12      -7.837445226315e-15 
   81       3.152105941662e-10       5.514306473859e-14      -1.386888756683e-12       2.199163325329e-16       1.599488492341e-11       1.704463393107e-12      -7.637155169125e-15 
   82       3.192625286654e-10       5.693276316851e-14      -1.459117604606e-12       2.254121016386e-16       1.549552132314e-11       1.661136318740e-12      -7.455355867210e-15 
   83       3.233464042426e-10       5.873987560267e-14      -1.532583464896e-12       2.309782654926e-16       1.501542268274e-11       1.619418768906e-12      -7.300247089279e-15 
   84       3.274613164637e-10       6.056293106207e-14      -1.607223332460e-12       2.366161491046e-16       1.455266154842e-11       1.579112922012e-12      -7.178545658197e-15 
   85       3.316077008819e-10       6.240068706486e-14      -1.682996375654e-12       2.423265524179e-16       1.410691397261e-11       1.540183239636e-12      -7.088741019934e-15 
   86       3.357861927575e-10       6.425193294312e-14      -1.759866958007e-12       2.481101701432e-16       1.367813686222e-11       1.502624325497e-12      -7.026747686123e-15 
   87       3.399972134507e-10       6.611541972587e-14      -1.837798608191e-12       2.539677420608e-16       1.326609162454e-11       1.466413389579e-12      -6.987906823158e-15 
   88       3.442409589078e-10       6.798986005556e-14      -1.916754048026e-12       2.599000541827e-16       1.287033609779e-11       1.431509527120e-12      -6.966967702392e-15 
   89       3.485173881465e-10       6.987392810439e-14      -1.996695220483e-12       2.659079399144e-16       1.249021648172e-11       1.397852997595e-12      -6.958069150323e-15 
   90       3.528262117417e-10       7.176625949079e-14      -2.077583317682e-12       2.719922812164e-16       1.212485926820e-11       1.365364503699e-12      -6.954720998789e-15 
   91       3.571668803113e-10       7.366545119580e-14      -2.159378808898e-12       2.781540097665e-16       1.177316317175e-11       1.333944470331e-12      -6.949785535158e-15 
   92       3.615385730017e-10       7.557006147951e-14      -2.242041468563e-12       2.843941081213e-16       1.143379106016e-11       1.303472323580e-12      -6.935458952521e-15 
   93       3.659404915210e-10       7.747862057062e-14      -2.325528548436e-12       2.907133692269e-16       1.110548434421e-11       1.273837062922e-12      -6.905017645205e-15 
   94       3.703728178334e-10       7.938966475596e-14      -2.409788918836e-12       2.971116310533e-16       1.078807776259e-11       1.245035803652e-12      -6.858397824253e-15 
   95       3.748358798831e-10       8.130170728734e-14      -2.494768093926e-12       3.035884284615e-16       1.048162301135e-11       1.217088791113e-12      -6.797424684494e-15 
   96       3.793298516597e-10       8.321322812866e-14      -2.580410011522e-12       3.101432224716e-16       1.018607628948e-11       1.190009140494e-12      -6.724127931197e-15 
   97       3.838547458776e-10       8.512267402020e-14      -2.666657035620e-12       3.167753981072e-16       9.901294655890e-12       1.163802545366e-12      -6.640747456000e-15 
   98       3.884104066560e-10       8.702845854288e-14      -2.753449958922e-12       3.234842622409e-16       9.627032386308e-12       1.138466986224e-12      -6.549739012850e-15 
   99       3.929965021989e-10       8.892896218259e-14      -2.840728005369e-12       3.302690414382e-16       9.362937330199e-12       1.113992439030e-12      -6.453779893927e-15 
  100       3.976125174748e-10       9.082253239447e-14      -2.928428832664e-12       3.371288798027e-16       9.108547267689e-12       1.090360583749e-12      -6.355774605588e-15 
  101       4.022577468967e-10       9.270748366722e-14      -3.016488534800e-12       3.440628368204e-16       8.863286266483e-12       1.067544512895e-12      -6.258860544295e-15 
  102       4.069312870023e-10       9.458209758735e-14      -3.104841644588e-12       3.510698852051e-16       8.626461038790e-12       1.045508440067e-12      -6.166413672549e-15 
  103       4.116320291331e-10       9.644462290354e-14      -3.193421136187e-12       3.581489087423e-16       8.397257298240e-12       1.024207408495e-12      -6.082054194826e-15 
  104       4.163589111190e-10       9.829332287142e-14      -3.282159763100e-12       3.652990697642e-16       8.174922642880e-12       1.003597093793e-12      -6.008836559920e-15 
  105       4.211117268161e-10       1.001266244335e-13      -3.370994272583e-12       3.725209727489e-16       7.959351186646e-12       9.836653481138e-13      -5.946682627860e-15 
  106       4.258904127877e-10       1.019429894048e-13      -3.459861767905e-12       3.798156546197e-16       7.750571478990e-12       9.644043936264e-13      -5.894610728636e-15 
  107       4.306947946460e-10       1.037408695690e-13      -3.548698440709e-12       3.871842310359e-16       7.548565457060e-12       9.458009304556e-13      -5.851517124389e-15 
