# dimensionless total [l(l+1)/2pi] C_l's
# for l=2 to 3100, i.e. number of multipoles equal to 3099
#
# -> if you prefer output in CAMB/HealPix/LensPix units/order, set 'format' to 'camb' in input file
# -> if you don't want to see such a header, set 'headers' to 'no' in input file
# -> for CMB lensing (phi), these are C_l^phi-phi for the lensing potential.
#    Remember the conversion factors:
#    C_l^dd (deflection) = l(l+1) C_l^phi-phi
#    C_l^gg (shear/convergence) = 1/4 (l(l+1))^2 C_l^phi-phi
#
# 1:l     2:TT                     3:EE                     4:TE                     5:BB                     6:phiphi                 7:TPhi                   8:Ephi               
    2       2.653862289609e-10       6.011141186013e-15       5.993310758022e-13       0.000000000000e+00       1.095203509774e-08       1.015206772021e-09      -1.915381253455e-12 
    3       2.231433115839e-10       8.020611005581e-15       6.622726844141e-13       0.000000000000e+00       6.717543206088e-09       6.815980888156e-10      -1.423545459581e-12 
    4       1.936086440729e-10       7.247874665176e-15       5.944382806338e-13       0.000000000000e+00       4.612823778478e-09       4.947850355129e-10      -9.460391882707e-13 
    5       1.733785251944e-10       5.043851792389e-15       4.747523088980e-13       0.000000000000e+00       3.398259347465e-09       3.774825191923e-10      -5.660259407050e-13 
    6       1.592761269911e-10       2.880435864436e-15       3.535197959041e-13       0.000000000000e+00       2.619684016913e-09       2.978172565362e-10      -2.771182966371e-13 
    7       1.492713850701e-10       1.483350834212e-15       2.548395549963e-13       0.000000000000e+00       2.085872901071e-09       2.408298255580e-10      -7.391003750228e-14 
    8       1.421507527412e-10       8.391283692582e-16       1.841336288549e-13       0.000000000000e+00       1.702827850280e-09       1.985258212340e-10       4.703636088568e-14 
    9       1.370281397934e-10       6.160276447046e-16       1.387239404664e-13       0.000000000000e+00       1.418073909159e-09       1.661894538489e-10       9.642969471284e-14 
   10       1.334138236453e-10       5.263773707947e-16       1.139335857184e-13       0.000000000000e+00       1.199756000452e-09       1.408996544804e-10       9.312994273661e-14 
   11       1.309511807855e-10       4.514650274351e-16       1.045486179758e-13       0.000000000000e+00       1.009003123872e-09       1.209186119260e-10       5.974084654806e-14 
   12       1.292928327185e-10       3.886245712047e-16       1.052174790702e-13       0.000000000000e+00       8.730731914853e-10       1.043991926586e-10       1.574777413242e-14 
   13       1.283400192514e-10       3.576788624862e-16       1.112347698234e-13       0.000000000000e+00       7.625154862524e-10       9.100019277960e-11      -2.333787633629e-14 
   14       1.279390139938e-10       3.550211563415e-16       1.190485105983e-13       0.000000000000e+00       6.707782887588e-10       7.962460637366e-11      -4.943830142246e-14 
   15       1.279099810301e-10       3.614036808422e-16       1.266218050589e-13       0.000000000000e+00       5.942851103064e-10       7.021412146752e-11      -5.984739291179e-14 
   16       1.282724988930e-10       3.654334210417e-16       1.331651591454e-13       0.000000000000e+00       5.297412154823e-10       6.225387818058e-11      -5.686476288019e-14 
   17       1.289382625970e-10       3.722848762998e-16       1.387051474159e-13       0.000000000000e+00       4.747205209399e-10       5.538516140736e-11      -4.545103267463e-14 
   18       1.298378098450e-10       3.956647140004e-16       1.439079022516e-13       0.000000000000e+00       4.272728142753e-10       4.943660570387e-11      -3.103878156962e-14 
   19       1.309652101193e-10       4.419524159635e-16       1.494864024691e-13       0.000000000000e+00       3.865684101049e-10       4.432175119863e-11      -1.757484609176e-14 
   20       1.322541814250e-10       5.134394007541e-16       1.561408046642e-13       0.000000000000e+00       3.509751049249e-10       3.984777199766e-11      -8.691612504595e-15 
   21       1.337077636624e-10       6.073652664966e-16       1.640753090432e-13       0.000000000000e+00       3.198718433229e-10       3.597135457610e-11      -5.152838186474e-15 
   22       1.353080423758e-10       7.186127787477e-16       1.732097322785e-13       0.000000000000e+00       2.924451409721e-10       3.262371332053e-11      -6.291748082327e-15 
   23       1.370355199845e-10       8.461092027323e-16       1.831566121949e-13       0.000000000000e+00       2.682680971440e-10       2.970378056178e-11      -1.045802431167e-14 
   24       1.388466485021e-10       9.895184561130e-16       1.933132418398e-13       0.000000000000e+00       2.467330711999e-10       2.706920594562e-11      -1.537303013678e-14 
   25       1.407513435918e-10       1.147161071070e-15       2.030817921001e-13       0.000000000000e+00       2.275586554026e-10       2.470794978701e-11      -1.943382131109e-14 
   26       1.427559596470e-10       1.317163345217e-15       2.118562528936e-13       0.000000000000e+00       2.103722675455e-10       2.262236714843e-11      -2.130627220870e-14 
   27       1.448529886374e-10       1.500770510324e-15       2.194000098797e-13       0.000000000000e+00       1.949454141004e-10       2.078000047330e-11      -2.087550705205e-14 
   28       1.470193856942e-10       1.700418297586e-15       2.256321590845e-13       0.000000000000e+00       1.809880152543e-10       1.912513287073e-11      -1.855786786870e-14 
   29       1.492586510232e-10       1.918420573474e-15       2.306433768905e-13       0.000000000000e+00       1.684137669027e-10       1.764224038610e-11      -1.507758858900e-14 
   30       1.515679033464e-10       2.157352600163e-15       2.346341066444e-13       0.000000000000e+00       1.570718511957e-10       1.631279928212e-11      -1.145598066132e-14 
   31       1.539315535784e-10       2.419750104971e-15       2.378382075933e-13       0.000000000000e+00       1.467108295675e-10       1.510632546999e-11      -8.765267394202e-15 
   32       1.563500685195e-10       2.706455973622e-15       2.403368074575e-13       0.000000000000e+00       1.372653229999e-10       1.401453030683e-11      -7.251868616483e-15 
   33       1.588188948159e-10       3.017633626241e-15       2.421783596407e-13       0.000000000000e+00       1.286568643711e-10       1.302762136858e-11      -6.886015103001e-15 
   34       1.613260236517e-10       3.353326895020e-15       2.433822249774e-13       0.000000000000e+00       1.207512818911e-10       1.212926345585e-11      -7.529149327328e-15 
   35       1.638749783002e-10       3.714003343570e-15       2.437812412174e-13       0.000000000000e+00       1.135017023138e-10       1.131369278547e-11      -8.747449957940e-15 
   36       1.664679890176e-10       4.100181144145e-15       2.431198207740e-13       0.000000000000e+00       1.068444909832e-10       1.057329942186e-11      -9.917457904939e-15 
   37       1.691022831704e-10       4.512365523354e-15       2.411411888895e-13       0.000000000000e+00       1.006861168383e-10       9.896859441215e-12      -1.042883433404e-14 
   38       1.717813399284e-10       4.951348333679e-15       2.377569150507e-13       0.000000000000e+00       9.500607906507e-11       9.281108263142e-12      -1.024765331756e-14 
   39       1.745060805660e-10       5.418002523588e-15       2.329319126510e-13       0.000000000000e+00       8.978156149149e-11       8.722237404025e-12      -9.536898755409e-15 
   40       1.772710204355e-10       5.913201512860e-15       2.266397997716e-13       0.000000000000e+00       8.495617146825e-11       8.212355915380e-12      -8.510102808936e-15 
   41       1.800676667357e-10       6.437773013571e-15       2.188724173149e-13       0.000000000000e+00       8.045853151581e-11       7.741852606276e-12      -7.401699770496e-15 
   42       1.828976114709e-10       6.992343257044e-15       2.096706805468e-13       0.000000000000e+00       7.627229167235e-11       7.308233916486e-12      -6.358116454740e-15 
   43       1.857626018683e-10       7.577441466674e-15       1.991047715656e-13       0.000000000000e+00       7.238403641729e-11       6.909584479065e-12      -5.517084464677e-15 
   44       1.886604900936e-10       8.193537871406e-15       1.872672686477e-13       0.000000000000e+00       6.876237382725e-11       6.541954608148e-12      -5.038885975287e-15 
   45       1.915872637610e-10       8.841089822594e-15       1.742382667529e-13       0.000000000000e+00       6.536855616664e-11       6.200576333596e-12      -5.054908592519e-15 
   46       1.945447444555e-10       9.520704841787e-15       1.599654756864e-13       0.000000000000e+00       6.219546734898e-11       5.884316483822e-12      -5.492181689004e-15 
   47       1.975345532967e-10       1.023302035804e-14       1.443503178417e-13       0.000000000000e+00       5.923788065855e-11       5.592286764675e-12      -6.198395683586e-15 
   48       2.005556753882e-10       1.097865769012e-14       1.272800412904e-13       0.000000000000e+00       5.648072792234e-11       5.322509191303e-12      -6.988176171538e-15 
   49       2.036042235871e-10       1.175822140058e-14       1.086268422490e-13       0.000000000000e+00       5.389837567939e-11       5.071837569073e-12      -7.641236019078e-15 
   50       2.066756548177e-10       1.257222552784e-14       8.827282487570e-14       0.000000000000e+00       5.146203330312e-11       4.836835937371e-12      -7.961770813791e-15 
   51       2.097726762905e-10       1.342085017504e-14       6.619490366930e-14       0.000000000000e+00       4.916602725425e-11       4.616877167265e-12      -7.979938900750e-15 
   52       2.128990769973e-10       1.430411773347e-14       4.240142999752e-14       0.000000000000e+00       4.700740749119e-11       4.411749718105e-12      -7.801876606750e-15 
   53       2.160573447823e-10       1.522195623997e-14       1.690869930209e-14       0.000000000000e+00       4.497810578891e-11       4.220741494463e-12      -7.554244385660e-15 
   54       2.192485455250e-10       1.617419528998e-14      -1.025871055971e-14       0.000000000000e+00       4.306459458839e-11       4.042606360599e-12      -7.385260953216e-15 
   55       2.224728304161e-10       1.716068063114e-14      -3.907929851533e-14       0.000000000000e+00       4.125184018350e-11       3.875898103023e-12      -7.427947366033e-15 
   56       2.257313821382e-10       1.818166064342e-14      -6.957279748224e-14       0.000000000000e+00       3.953709384415e-11       3.720146183231e-12      -7.676797518267e-15 
   57       2.290247405376e-10       1.923748871035e-14      -1.017709035998e-13       0.000000000000e+00       3.791892915234e-11       3.574913414646e-12      -8.082281316990e-15 
   58       2.323521226416e-10       2.032851347552e-14      -1.357065240372e-13       0.000000000000e+00       3.639307777599e-11       3.439435352838e-12      -8.585521782232e-15 
   59       2.357113263121e-10       2.145507937957e-14      -1.714138943999e-13       0.000000000000e+00       3.495225563033e-11       3.312601126152e-12      -9.117856841940e-15 
   60       2.390986339002e-10       2.261752719715e-14      -2.089286961372e-13       0.000000000000e+00       3.358598903923e-11       3.192934266331e-12      -9.600401126935e-15 
   61       2.425103113616e-10       2.381607080114e-14      -2.482791521691e-13       0.000000000000e+00       3.228343563594e-11       3.078960539707e-12      -9.961659675918e-15 
   62       2.459477167789e-10       2.505039391632e-14      -2.894567125883e-13       0.000000000000e+00       3.104298024795e-11       2.970451287868e-12      -1.019598038777e-14 
   63       2.494131727528e-10       2.631996339372e-14      -3.324389674451e-13       0.000000000000e+00       2.986449423410e-11       2.867426421847e-12      -1.031750395707e-14 
   64       2.529084273067e-10       2.762414167318e-14      -3.771979223997e-13       0.000000000000e+00       2.874645355264e-11       2.769785294541e-12      -1.034340162564e-14 
   65       2.564346081641e-10       2.896218339313e-14      -4.236998298747e-13       0.000000000000e+00       2.768585994342e-11       2.677299810572e-12      -1.029400975093e-14 
   66       2.599921770248e-10       3.033323200033e-14      -4.719050202081e-13       0.000000000000e+00       2.667816211002e-11       2.589607536149e-12      -1.019296437444e-14 
   67       2.635808838423e-10       3.173631635968e-14      -5.217677328053e-13       0.000000000000e+00       2.571717690198e-11       2.506204808926e-12      -1.006733579013e-14 
   68       2.672003065310e-10       3.317048429195e-14      -5.732457328911e-13       0.000000000000e+00       2.479670199568e-11       2.426578556044e-12      -9.941892603586e-15 
   69       2.708516992836e-10       3.463524218620e-14      -6.263318019531e-13       0.000000000000e+00       2.391590957250e-11       2.350648165753e-12      -9.820243476422e-15 
   70       2.745364383531e-10       3.613019878331e-14      -6.810283540834e-13       0.000000000000e+00       2.307490897161e-11       2.278401184251e-12      -9.700098390478e-15 
   71       2.782554395607e-10       3.765493623918e-14      -7.373382949136e-13       0.000000000000e+00       2.227311697106e-11       2.209759246813e-12      -9.578785767579e-15 
   72       2.820091275453e-10       3.920901023651e-14      -7.952651030379e-13       0.000000000000e+00       2.150922223079e-11       2.144574735177e-12      -9.453236897039e-15 
   73       2.857974050129e-10       4.079195009648e-14      -8.548129114372e-13       0.000000000000e+00       2.078114973566e-11       2.082627434930e-12      -9.319970363175e-15 
   74       2.896196219863e-10       4.240325889057e-14      -9.159865889026e-13       0.000000000000e+00       2.008602523841e-11       2.023621192892e-12      -9.175076472817e-15 
   75       2.934745450547e-10       4.404241355227e-14      -9.787918214593e-13       0.000000000000e+00       1.942013970272e-11       1.967180574498e-12      -9.014201682824e-15 
   76       2.973609208059e-10       4.570879298575e-14      -1.043227489286e-12       0.000000000000e+00       1.877985517056e-11       1.912938483270e-12      -8.834197668211e-15 
   77       3.012793527152e-10       4.740144700969e-14      -1.109261012626e-12       0.000000000000e+00       1.816459167295e-11       1.860824854368e-12      -8.638450122157e-15 
   78       3.052307122391e-10       4.911928528650e-14      -1.176848637129e-12       0.000000000000e+00       1.757432292755e-11       1.810824777431e-12      -8.432497910987e-15 
   79       3.092155567300e-10       5.086114424489e-14      -1.245942664186e-12       0.000000000000e+00       1.700866724525e-11       1.762890751343e-12      -8.222472901797e-15 
   80       3.132341108699e-10       5.262578571517e-14      -1.316491374371e-12       0.000000000000e+00       1.646687127796e-11       1.716941206864e-12      -8.015118524769e-15 
   81       3.172862481039e-10       5.441189556447e-14      -1.388438950875e-12       0.000000000000e+00       1.594779376619e-11       1.672859029274e-12      -7.817808335490e-15 
   82       3.213714720746e-10       5.621808233203e-14      -1.461725402943e-12       0.000000000000e+00       1.544988928679e-11       1.630490081001e-12      -7.638564577268e-15 
   83       3.254888980552e-10       5.804287586448e-14      -1.536286489310e-12       0.000000000000e+00       1.497119200057e-11       1.589641724260e-12      -7.486076743448e-15 
   84       3.296376517590e-10       5.988479956687e-14      -1.612059730418e-12       0.000000000000e+00       1.450978755029e-11       1.550129037815e-12      -7.367491658182e-15 
   85       3.338181823988e-10       6.174260390737e-14      -1.689003757969e-12       0.000000000000e+00       1.406535424001e-11       1.511925506580e-12      -7.281322121420e-15 
   86       3.380311342767e-10       6.361506930051e-14      -1.767082047653e-12       0.000000000000e+00       1.363784874070e-11       1.475034720637e-12      -7.223391234633e-15 
   87       3.422769373813e-10       6.550093580757e-14      -1.846257140969e-12       0.000000000000e+00       1.322703272692e-11       1.439444236400e-12      -7.188937745708e-15 
   88       3.465557958367e-10       6.739890300910e-14      -1.926490670989e-12       0.000000000000e+00       1.283246482865e-11       1.405124900826e-12      -7.172597157792e-15 
   89       3.508676763506e-10       6.930762987743e-14      -2.007743388129e-12       0.000000000000e+00       1.245349258325e-11       1.372030175640e-12      -7.168382838143e-15 
   90       3.552122966627e-10       7.122573464916e-14      -2.089975185919e-12       0.000000000000e+00       1.208924438724e-11       1.340095461549e-12      -7.169667126966e-15 
   91       3.595891139936e-10       7.315179469769e-14      -2.173145126771e-12       0.000000000000e+00       1.173862144829e-11       1.309237422457e-12      -7.169162446269e-15 
   92       3.639973134927e-10       7.508434640571e-14      -2.257211467745e-12       0.000000000000e+00       1.140028973700e-11       1.279353309690e-12      -7.158902408700e-15 
   93       3.684361017191e-10       7.702189633479e-14      -2.342129994351e-12       0.000000000000e+00       1.107299365167e-11       1.250347115470e-12      -7.132022172380e-15 
   94       3.729056626624e-10       7.896295693265e-14      -2.427848679300e-12       0.000000000000e+00       1.075656845697e-11       1.222214000708e-12      -7.088446835392e-15 
   95       3.774063248192e-10       8.090601598553e-14      -2.514312264331e-12       0.000000000000e+00       1.045106594449e-11       1.194967374792e-12      -7.030027629228e-15 
   96       3.819382617064e-10       8.284952582684e-14      -2.601463883119e-12       0.000000000000e+00       1.015644270414e-11       1.168612894351e-12      -6.958824631626e-15 
   97       3.865014844973e-10       8.479190336478e-14      -2.689245063817e-12       0.000000000000e+00       9.872556492175e-12       1.143148155755e-12      -6.877112573374e-15 
   98       3.910958346573e-10       8.673153010987e-14      -2.777595731600e-12       0.000000000000e+00       9.599162599172e-12       1.118562387615e-12      -6.787386645109e-15 
   99       3.957209765788e-10       8.866675220256e-14      -2.866454211209e-12       0.000000000000e+00       9.335910217992e-12       1.094836143279e-12      -6.692368304113e-15 
  100       4.003763902178e-10       9.059588044083e-14      -2.955757229493e-12       0.000000000000e+00       9.082338811770e-12       1.071940993330e-12      -6.595011081118e-15 
  101       4.050613637287e-10       9.251719030772e-14      -3.045439917953e-12       0.000000000000e+00       8.837874481892e-12       1.049839218089e-12      -6.498506387104e-15 
  102       4.097749861001e-10       9.442892199898e-14      -3.135435815290e-12       0.000000000000e+00       8.601826335977e-12       1.028483500108e-12      -6.406289320097e-15 
  103       4.145161397908e-10       9.632928045058e-14      -3.225676869940e-12       0.000000000000e+00       8.373382855849e-12       1.007816616671e-12      -6.322044471970e-15 
  104       4.192837553003e-10       9.821648353247e-14      -3.316094804354e-12       0.000000000000e+00       8.151794086086e-12       9.877840232465e-13      -6.248883130744e-15 
  105       4.240776299097e-10       1.000889139846e-13      -3.406625412211e-12       0.000000000000e+00       7.936954051451e-12       9.683742020561e-13      -6.186735796268e-15 
  106       4.288977063264e-10       1.019449881523e-13      -3.497204849138e-12       0.000000000000e+00       7.728890610699e-12       9.495832161123e-13      -6.134616617204e-15 
  107       4.337438161931e-10       1.037831102028e-13      -3.587768340117e-12       0.000000000000e+00       7.527585090825e-12       9.314021411452e-13      -6.091417282649e-15 
