# Matter power spectrum P(k) at redshift z=0
# for k=9.0361e-06 to 1.72817 h/Mpc,
# number of wavenumbers equal to 556
#    1:k (h/Mpc)              2:P (Mpc/h)^3        
       9.036099472458e-06       2.754348766656e+01 
       2.121488357549e-05       6.105595026726e+01 
       3.342994680255e-05       9.455020314928e+01 
       4.571065685992e-05       1.272912015346e+02 
       5.808680017082e-05       1.608318210565e+02 
       7.058881939833e-05       1.938816619648e+02 
       8.324805759878e-05       2.273022050083e+02 
       9.609701193905e-05       2.609568338174e+02 
       1.091695999345e-04       2.959977083193e+02 
       1.225014411921e-04       3.292380740569e+02 
       1.361301576607e-04       3.641918794199e+02 
       1.500956953823e-04       4.018393727560e+02 
       1.644406706682e-04       4.368700296587e+02 
       1.792107434717e-04       4.770492380430e+02 
       1.944550204304e-04       5.148068371741e+02 
       2.102264895540e-04       5.538974662705e+02 
       2.265824877539e-04       5.936170503190e+02 
       2.435852012343e-04       6.397822323335e+02 
       2.613021970734e-04       6.842069933518e+02 
       2.798069819314e-04       7.310951846757e+02 
       2.991795805551e-04       7.790640440783e+02 
       3.195071223658e-04       8.293108385351e+02 
       3.408844186930e-04       8.820473857266e+02 
       3.634145059148e-04       9.374704425444e+02 
       3.872091207369e-04       9.957679768783e+02 
       4.123890630449e-04       1.058024799012e+03 
       4.390843894414e-04       1.122050658686e+03 
       4.674343673639e-04       1.191437351549e+03 
       4.975871068064e-04       1.264161784332e+03 
       5.296987762032e-04       1.341556474026e+03 
       5.639323039526e-04       1.422200299209e+03 
       6.004554713530e-04       1.507842017433e+03 
       6.394383209794e-04       1.600242099968e+03 
       6.810498412783e-04       1.696417495797e+03 
       7.254539464401e-04       1.799396910551e+03 
       7.728048501675e-04       1.908636345758e+03 
       8.232420272200e-04       2.024486729422e+03 
       8.768850553241e-04       2.146066620001e+03 
       9.338287136308e-04       2.273545493095e+03 
       9.941387604837e-04       9.102484081518e+03 
       1.057848803325e-03       2.544926631943e+03 
       1.124958597101e-03       1.014787181756e+04 
       1.195433969734e-03       2.842596203265e+03 
       1.269208395812e-03       2.999967833418e+03 
       1.346186056256e-03       3.161318437828e+03 
       1.426246068025e-03       3.323215068853e+03 
       1.509247471549e-03       3.492629320145e+03 
       1.595034535944e-03       3.667233394812e+03 
       1.683441978044e-03       3.840071826459e+03 
       1.774299772624e-03       1.517439041384e+04 
       1.867437334671e-03       1.405415326426e+04 
       1.962686958528e-03       4.376675119222e+03 
       2.059886487817e-03       4.559162322098e+03 
       2.158881256363e-03       5.234567425517e+03 
       2.259525382559e-03       4.926608668567e+03 
       2.361682520649e-03       1.907570793579e+04 
       2.465226177287e-03       8.514063919861e+03 
       2.570039695778e-03       6.306543960383e+03 
       2.676015998316e-03       7.541498843769e+03 
       2.783057161795e-03       2.150907933708e+04 
       2.891073887754e-03       2.217019635127e+04 
       2.999984913268e-03       2.138224932058e+04 
       3.109716397610e-03       2.037450187326e+04 
       3.220201309702e-03       1.926870221795e+04 
       3.331378833547e-03       1.815427710057e+04 
       3.443193802819e-03       1.709007513469e+04 
       3.555596171257e-03       1.611011289164e+04 
       3.668540522250e-03       1.523040584312e+04 
       3.781985618664e-03       1.445495757750e+04 
       3.895893992358e-03       1.378048229182e+04 
       4.010231571828e-03       1.319969791442e+04 
       4.124967345762e-03       1.270349006910e+04 
       4.240073059936e-03       1.228227741808e+04 
       4.355522944762e-03       2.938525724483e+04 
       4.471293470774e-03       2.855874703678e+04 
       4.587363129410e-03       2.758182931212e+04 
       4.703712236629e-03       2.651254161270e+04 
       4.820322757015e-03       2.540519972859e+04 
       4.937178146263e-03       2.429870720465e+04 
       5.054263210081e-03       2.322250213649e+04 
       5.171563977766e-03       2.219638886185e+04 
       5.289067588856e-03       2.123231189440e+04 
       5.406762191453e-03       2.033731971358e+04 
       5.524636850929e-03       1.951329310142e+04 
       5.642681467905e-03       1.876019171045e+04 
       5.760886704480e-03       1.807530043260e+04 
       5.879243917823e-03       1.745453692653e+04 
       5.997745100328e-03       1.689562626797e+04 
       6.116382825639e-03       1.639160112700e+04 
       6.235150199897e-03       1.593860340332e+04 
       6.354040817679e-03       1.553219201839e+04 
       6.473048722118e-03       1.516750566645e+04 
       6.592168368774e-03       1.484099880566e+04 
       6.711394592866e-03       1.454877022744e+04 
       6.830722579519e-03       1.428710428437e+04 
       6.950147836722e-03       1.405321304667e+04 
       7.069666170720e-03       1.384394205094e+04 
       7.189273663593e-03       1.365682840057e+04 
       7.308966652824e-03       1.348945039135e+04 
       7.428741712629e-03       1.334035507542e+04 
       7.548595636915e-03       1.320699933607e+04 
       7.668525423677e-03       1.308774236987e+04 
       7.788528260719e-03       1.298178885823e+04 
       7.908601512566e-03       1.288736114340e+04 
       8.028742708455e-03       1.280277160132e+04 
       8.148949531311e-03       1.272754382496e+04 
       8.269219807607e-03       1.266075764769e+04 
       8.389551498047e-03       1.260100049965e+04 
       8.509942688980e-03       1.254796240198e+04 
       8.630391584489e-03       1.250126441143e+04 
       8.750896499095e-03       1.245919801824e+04 
       8.871455851029e-03       1.242204684397e+04 
       8.992068156006e-03       1.238916970585e+04 
       9.112732021477e-03       1.235980026855e+04 
       9.233446141313e-03       1.233428323720e+04 
       9.354209290880e-03       1.231130093000e+04 
       9.475020322478e-03       1.229093746447e+04 
       9.595878161114e-03       1.227274922510e+04 
       9.716781800582e-03       1.225682021664e+04 
       9.837730299825e-03       1.224242356544e+04 
       9.958722779557e-03       1.222979195364e+04 
       1.007975841912e-02       1.221865705835e+04 
       1.020083645359e-02       1.220826809279e+04 
       1.032195617103e-02       1.219899676802e+04 
       1.044311691000e-02       1.219059643320e+04 
       1.056431805719e-02       1.218262187998e+04 
       1.068555904524e-02       1.217572397100e+04 
       1.080683935073e-02       1.216887118818e+04 
       1.092815849226e-02       4.454523882823e+04 
       1.104951602870e-02       1.215591679993e+04 
       1.117091155753e-02       4.493840480560e+04 
       1.129234471335e-02       1.214388795267e+04 
       1.141381516641e-02       1.213761812549e+04 
       1.153532262132e-02       1.213138619894e+04 
       1.165686681581e-02       1.212531841348e+04 
       1.177844751954e-02       1.211858544939e+04 
       1.190006453312e-02       1.211176711048e+04 
       1.202171768700e-02       1.210483337095e+04 
       1.214340684065e-02       1.209744678009e+04 
       1.226513188164e-02       1.208973908964e+04 
       1.238689272487e-02       1.208164446691e+04 
       1.250868931181e-02       1.207322997576e+04 
       1.263052160986e-02       1.206416512559e+04 
       1.275238961165e-02       1.205470548156e+04 
       1.287429333453e-02       1.204489856230e+04 
       1.299623281999e-02       1.203458853933e+04 
       1.311820813317e-02       1.202353491985e+04 
       1.324021936241e-02       1.201208649075e+04 
       1.336226661885e-02       1.200021788781e+04 
       1.348435003603e-02       1.198768106411e+04 
       1.360646976958e-02       1.197445931378e+04 
       1.372862599687e-02       1.196077185792e+04 
       1.385081891678e-02       1.194643416474e+04 
       1.397304874941e-02       1.193152577261e+04 
       1.409531573591e-02       1.191614282280e+04 
       1.421762013824e-02       1.190017771699e+04 
       1.433996223905e-02       1.188346404808e+04 
       1.446234234152e-02       1.186623972523e+04 
       1.458476076925e-02       1.184839856540e+04 
       1.470721786621e-02       1.183002103556e+04 
       1.482971399659e-02       1.181098321915e+04 
       1.495224954486e-02       1.179138618558e+04 
       1.507482491566e-02       1.177111829943e+04 
       1.519744053384e-02       1.175044327914e+04 
       1.532009684451e-02       1.172907688938e+04 
       1.544279431299e-02       1.170701562974e+04 
       1.556553342497e-02       1.168466237622e+04 
       1.568831468650e-02       1.166157265360e+04 
       1.581113862416e-02       1.163792156425e+04 
       1.593400578510e-02       1.161370089552e+04 
       1.605691673723e-02       1.158899766298e+04 
       1.617987206933e-02       1.156371702829e+04 
       1.630287239124e-02       1.153787187914e+04 
       1.642591833403e-02       1.151140304267e+04 
       1.654901055019e-02       1.148452731642e+04 
       1.667214971386e-02       1.145715272319e+04 
       1.679533652107e-02       1.142915037071e+04 
       1.691857168994e-02       1.140065882894e+04 
       1.704185596101e-02       1.137182290657e+04 
       1.716519009748e-02       1.134242561925e+04 
       1.728857488551e-02       1.131266306366e+04 
       1.741201113454e-02       1.128207558698e+04 
       1.753549967762e-02       1.125138750291e+04 
       1.765904137177e-02       1.121991605238e+04 
       1.778263709829e-02       1.118815030753e+04 
       1.790628776322e-02       1.115598088031e+04 
       1.802999429765e-02       1.112332867512e+04 
       1.815375765821e-02       1.109023363139e+04 
       1.827757882744e-02       1.105670217013e+04 
       1.840145881429e-02       1.102267984298e+04 
       1.852539865452e-02       1.098849717063e+04 
       1.864939941126e-02       1.095378275886e+04 
       1.877346217544e-02       1.091869069011e+04 
       1.889758806636e-02       1.088318503338e+04 
       1.902177823221e-02       1.084740254161e+04 
       1.914603385063e-02       1.081120967163e+04 
       1.927035612925e-02       1.077459401230e+04 
       1.939474630638e-02       1.073765060678e+04 
       1.951920565153e-02       1.070048065094e+04 
       1.964373546609e-02       1.066290547207e+04 
       1.976833708400e-02       1.062497157299e+04 
       1.989301187241e-02       1.058670717979e+04 
       2.001776123241e-02       1.054826282401e+04 
       2.014258659971e-02       1.050937885841e+04 
       2.026748944545e-02       1.047030445238e+04 
       2.039247127692e-02       1.043092120701e+04 
       2.051753363841e-02       1.039122158030e+04 
       2.064267811199e-02       1.035125103191e+04 
       2.076790631838e-02       1.031116123725e+04 
       2.089321991785e-02       1.027061699084e+04 
       2.101862061107e-02       1.022990696323e+04 
       2.114411014012e-02       1.018905607035e+04 
       2.126969028937e-02       1.014789873729e+04 
       2.139536288654e-02       1.010655994283e+04 
       2.152112980372e-02       1.006496601576e+04 
       2.164699295838e-02       1.002323589134e+04 
       2.177295431451e-02       9.981199906608e+03 
       2.189901588373e-02       9.938999633342e+03 
       2.202517972644e-02       9.896695728676e+03 
       2.215144795303e-02       9.854129596980e+03 
       2.227782272513e-02       9.811419553040e+03 
       2.240430625685e-02       9.768506242492e+03 
       2.253090081615e-02       9.725486423314e+03 
       2.265760872612e-02       9.682357296073e+03 
       2.278443236646e-02       9.639027389308e+03 
       2.291137417489e-02       9.595645895928e+03 
       2.303843664864e-02       9.552098175144e+03 
       2.316562234602e-02       9.508383016687e+03 
       2.329293388796e-02       9.464547507892e+03 
       2.342037395973e-02       9.420616068779e+03 
       2.354794531256e-02       9.376656188908e+03 
       2.367565076545e-02       9.332541877926e+03 
       2.380349320697e-02       9.288313415095e+03 
       2.393147559710e-02       9.244040983424e+03 
       2.405960096922e-02       9.199622561469e+03 
       2.418787243208e-02       9.155234781053e+03 
       2.431629317186e-02       9.110680354060e+03 
       2.444486645433e-02       9.066149317617e+03 
       2.457359562704e-02       9.021541065035e+03 
       2.470248412165e-02       8.976822568365e+03 
       2.483153545623e-02       8.932018251125e+03 
       2.496075323778e-02       8.887403962921e+03 
       2.509014116471e-02       8.842630263855e+03 
       2.521970302951e-02       8.797838759473e+03 
       2.534944272142e-02       8.752967998034e+03 
       2.547936422931e-02       8.708110243160e+03 
       2.560947164450e-02       8.663248952712e+03 
       2.573976916390e-02       8.618389517725e+03 
       2.587026109303e-02       8.573557468003e+03 
       2.600095184934e-02       8.528682179072e+03 
       2.613184596555e-02       8.483840047704e+03 
       2.626294809315e-02       8.439048074140e+03 
       2.639426300598e-02       8.394170037174e+03 
       2.652579560407e-02       8.349406958035e+03 
       2.665755091747e-02       8.304565795241e+03 
       2.678953411031e-02       8.259900574970e+03 
       2.692175048507e-02       8.215183283736e+03 
       2.705420548685e-02       8.170528033552e+03 
       2.718690470799e-02       8.125888558482e+03 
       2.731985389276e-02       8.081328011928e+03 
       2.745305894226e-02       8.036789064180e+03 
       2.758652591957e-02       7.992350138771e+03 
       2.772026105498e-02       7.947932367490e+03 
       2.785427075159e-02       7.903573145502e+03 
       2.798856159104e-02       7.859290565353e+03 
       2.812314033949e-02       7.815098597952e+03 
       2.825801395386e-02       7.770966337576e+03 
       2.839318958838e-02       7.726949398741e+03 
       2.852867460130e-02       7.682990621722e+03 
       2.866447656202e-02       7.639122587097e+03 
       2.880060325843e-02       7.595289077491e+03 
       2.893706270463e-02       7.551581489734e+03 
       2.907386314893e-02       7.507970167059e+03 
       2.921101308229e-02       7.464458113602e+03 
       2.934852124705e-02       7.421032936778e+03 
       2.948639664610e-02       7.377715836367e+03 
       2.962464855246e-02       7.334491924532e+03 
       2.976328651931e-02       7.291401048591e+03 
       2.990232039043e-02       2.498143650912e+04 
       3.004176031122e-02       7.205481420578e+03 
       3.018161674018e-02       7.162768053632e+03 
       3.032190046092e-02       1.839906913479e+04 
       3.046262259481e-02       7.077571877408e+03 
       3.060379461420e-02       7.035112488140e+03 
       3.074542835628e-02       6.992859203111e+03 
       3.088753603769e-02       6.950730263689e+03 
       3.103013026978e-02       2.287752307039e+04 
       3.117322407469e-02       6.866793681347e+03 
       3.131683090225e-02       6.825042201513e+03 
       3.146096464772e-02       1.588978410902e+04 
       3.160563967050e-02       6.741885058455e+03 
       3.175087081379e-02       6.700507592821e+03 
       3.189667342530e-02       6.659280290392e+03 
       3.204306337910e-02       6.618190380070e+03 
       3.219005709861e-02       6.577276306646e+03 
       3.233767158091e-02       6.536459273498e+03 
       3.248592442234e-02       6.495808890228e+03 
       3.263483384560e-02       6.455311053884e+03 
       3.278441872833e-02       1.645103262736e+04 
       3.293469863338e-02       6.374726399698e+03 
       3.308569384078e-02       6.334667337176e+03 
       3.323742538167e-02       6.294743839973e+03 
       3.338991507416e-02       6.254988404758e+03 
       3.354318556138e-02       6.215397788475e+03 
       3.369726035189e-02       6.175913248223e+03 
       3.385216386250e-02       6.136615570457e+03 
       3.400792146379e-02       6.097441231300e+03 
       3.416455952851e-02       1.194252174876e+04 
       3.432210548310e-02       6.019595825566e+03 
       3.448058786242e-02       5.980936068337e+03 
       3.464003636823e-02       5.942362991110e+03 
       3.480048193143e-02       5.903989133755e+03 
       3.496195677850e-02       1.733272576883e+04 
       3.512449450250e-02       5.827698875965e+03 
       3.528813013893e-02       5.789794298933e+03 
       3.545290024690e-02       5.752036773212e+03 
       3.561884299605e-02       5.714430781132e+03 
       3.578599825973e-02       5.677002668495e+03 
       3.595440771495e-02       5.639739431049e+03 
       3.612411494967e-02       5.602588413175e+03 
       3.629516557823e-02       5.565624244344e+03 
       3.646760736543e-02       5.528798072781e+03 
       3.664149036027e-02       5.492138044730e+03 
       3.681686704013e-02       5.455638677247e+03 
       3.699379246639e-02       1.479638844199e+04 
       3.717232445262e-02       5.383084557587e+03 
       3.735252374652e-02       9.264174183713e+03 
       3.753445422707e-02       8.390972042545e+03 
       3.771818311828e-02       1.677897049730e+04 
       3.790378122134e-02       5.239817990891e+03 
       3.809132316706e-02       7.375041717381e+03 
       3.828088769065e-02       8.541785212332e+03 
       3.847255793148e-02       5.133945427048e+03 
       3.866642176018e-02       8.312961204418e+03 
       3.886257213651e-02       5.064128656342e+03 
       3.906110750114e-02       1.755540463013e+04 
       3.926213220548e-02       1.475204774026e+04 
       3.946575698388e-02       4.960452881461e+03 
       3.967209947330e-02       4.926187670459e+03 
       3.988128478619e-02       4.892053820218e+03 
       4.009344614322e-02       1.284016916958e+04 
       4.030872557334e-02       1.348040882209e+04 
       4.052727468990e-02       1.218121377909e+04 
       4.074925555269e-02       4.756916002196e+03 
       4.097484162758e-02       4.723467929164e+03 
       4.120421885693e-02       4.690142614944e+03 
       4.143758685631e-02       1.323834149351e+04 
       4.167516025544e-02       1.410009064532e+04 
       4.191717020448e-02       4.590954082485e+03 
       4.216386607013e-02       4.558145832661e+03 
       4.241551735040e-02       4.525462500295e+03 
       4.267241584227e-02       4.492873469366e+03 
       4.293487810220e-02       4.460418690622e+03 
       4.320324824741e-02       4.428072847418e+03 
       4.347790115478e-02       6.837592005909e+03 
       4.375924612515e-02       4.363735042528e+03 
       4.404773109472e-02       4.331713962018e+03 
       4.434384749171e-02       4.299815761393e+03 
       4.464813585694e-02       1.017649212674e+04 
       4.496119237270e-02       4.236302098903e+03 
       4.528367647589e-02       4.204695974997e+03 
       4.561631977068e-02       6.391073253525e+03 
       4.595993650618e-02       4.141726401611e+03 
       4.631543594636e-02       4.110360397383e+03 
       4.668383703901e-02       4.079083000699e+03 
       4.706628589018e-02       4.047867459553e+03 
       4.746407667797e-02       6.435115613293e+03 
       4.787867680162e-02       3.985625331388e+03 
       4.831175726839e-02       3.954571669015e+03 
       4.876522958398e-02       3.923529770723e+03 
       4.924129074601e-02       3.892511035922e+03 
       4.974247836068e-02       3.861455483795e+03 
       5.027173842413e-02       3.830363165605e+03 
       5.083250894112e-02       3.799162658154e+03 
       5.142882328189e-02       3.767812600706e+03 
       5.206543794451e-02       3.736227359413e+03 
       5.274799003448e-02       3.704252657056e+03 
       5.348318992329e-02       3.671792179716e+03 
       5.427905342212e-02       3.638571022273e+03 
       5.514517383958e-02       3.604274362824e+03 
       5.609302452231e-02       3.568396424506e+03 
