# Matter power spectrum P(k) at redshift z=0
# for k=1.17233e-05 to 1.58883 h/Mpc,
# number of wavenumbers equal to 565
#    1:k (h/Mpc)              2:P (Mpc/h)^3        
       1.172328997123e-05       4.507770888107e+01 
       2.609758446818e-05       9.733468514230e+01 
       4.053500434189e-05       1.486639988148e+02 
       5.508395205885e-05       1.996721356072e+02 
       6.979382722341e-05       2.507158675442e+02 
       8.471557458578e-05       3.020703437012e+02 
       9.990225367251e-05       3.539766719188e+02 
       1.154096392869e-04       4.066619659269e+02 
       1.312968621767e-04       4.603498329369e+02 
       1.476270991791e-04       5.152671133645e+02 
       1.644683220254e-04       5.716488822190e+02 
       1.818941135826e-04       6.297425328602e+02 
       1.999845594134e-04       6.898115733112e+02 
       2.188272208814e-04       7.521391853121e+02 
       2.385181932216e-04       8.170318067665e+02 
       2.591632475187e-04       8.848227016636e+02 
       2.808790487244e-04       9.558756817870e+02 
       3.037944318344e-04       1.030588704299e+03 
       3.280517041309e-04       1.109397445544e+03 
       3.538079218365e-04       1.192778516563e+03 
       3.812360635421e-04       1.281252223581e+03 
       4.105259895969e-04       1.375384349861e+03 
       4.418850364121e-04       1.475786558015e+03 
       4.755380490925e-04       1.583114767384e+03 
       5.117266095692e-04       1.698064772786e+03 
       5.507071791039e-04       1.821364240698e+03 
       5.927478575434e-04       1.953760244830e+03 
       6.381234861261e-04       2.096001589701e+03 
       6.871089081958e-04       2.248815705236e+03 
       7.399703723473e-04       2.412880094757e+03 
       7.969553219739e-04       2.588789677099e+03 
       8.582811449790e-04       2.777021846472e+03 
       9.241238029269e-04       2.977902544359e+03 
       9.946075308994e-04       3.191577263034e+03 
       1.069796894296e-03       3.417990573957e+03 
       1.149692328086e-03       3.656877739499e+03 
       1.234229857345e-03       3.907770109304e+03 
       1.323285086090e-03       4.170014014443e+03 
       1.416680897905e-03       4.442800890934e+03 
       1.514197805352e-03       4.725204897350e+03 
       1.615585633235e-03       5.016223621579e+03 
       1.720575249162e-03       5.314817257737e+03 
       1.828889303203e-03       5.619943790785e+03 
       1.940251299552e-03       5.930586924182e+03 
       2.054392690843e-03       6.245777460295e+03 
       2.171057986814e-03       6.564605417188e+03 
       2.290008071950e-03       6.886206259421e+03 
       2.411022033388e-03       7.209844302896e+03 
       2.533897831527e-03       7.534830450872e+03 
       2.658452127432e-03       7.860547464177e+03 
       2.784519536521e-03       8.186446447759e+03 
       2.911951524139e-03       8.512040928238e+03 
       3.040615106095e-03       8.836902843816e+03 
       3.170391471372e-03       9.160654681626e+03 
       3.301174607119e-03       9.482966946832e+03 
       3.432869977507e-03       9.803550958723e+03 
       3.565393287081e-03       1.012215448492e+04 
       3.698669344434e-03       1.043855843557e+04 
       3.832631031978e-03       1.075257231129e+04 
       3.967218381001e-03       1.106402977859e+04 
       4.102377747231e-03       1.137278863800e+04 
       4.238061079803e-03       1.167872396298e+04 
       4.374225275490e-03       1.198172998401e+04 
       4.510831609728e-03       1.228171375982e+04 
       4.647845236164e-03       1.257860029362e+04 
       4.785234746907e-03       1.287232051104e+04 
       4.922971786294e-03       1.316282129468e+04 
       5.061030711657e-03       1.345005429045e+04 
       5.199388295262e-03       1.373398084599e+04 
       5.338023462257e-03       1.401457624613e+04 
       5.476917060083e-03       1.429179814829e+04 
       5.616051655351e-03       1.456565703258e+04 
       5.755411354710e-03       1.483612288767e+04 
       5.894981646669e-03       1.510319106566e+04 
       6.034749261721e-03       1.536685402338e+04 
       6.174702048491e-03       1.562710389070e+04 
       6.314828863888e-03       1.588394752561e+04 
       6.455119475551e-03       1.613738904500e+04 
       6.595564475069e-03       1.638743042181e+04 
       6.736155200672e-03       1.663408362941e+04 
       6.876883668243e-03       1.687737074327e+04 
       7.017742509677e-03       1.711728671717e+04 
       7.158724917704e-03       1.735384863277e+04 
       7.299824596437e-03       1.758707659983e+04 
       7.441035716971e-03       1.781699305110e+04 
       7.582352877474e-03       1.804360491482e+04 
       7.723771067246e-03       1.826693266941e+04 
       7.865285634321e-03       1.848699880825e+04 
       8.006892256212e-03       1.870382253293e+04 
       8.148586913459e-03       1.891741328639e+04 
       8.290365865683e-03       1.912782632903e+04 
       8.432225629876e-03       1.933505244752e+04 
       8.574162960700e-03       1.953911932072e+04 
       8.716174832569e-03       1.974004681010e+04 
       8.858258423359e-03       1.993786638066e+04 
       9.000411099558e-03       2.013258873833e+04 
       9.142630402720e-03       2.032426135294e+04 
       9.284914037105e-03       2.051287971395e+04 
       9.427259858365e-03       2.069849135289e+04 
       9.569665863206e-03       2.088110197268e+04 
       9.712130179907e-03       2.106073794781e+04 
       9.854651059629e-03       2.123742423067e+04 
       9.997226868439e-03       2.141123548147e+04 
       1.013985607998e-02       2.158206463405e+04 
       1.028253726874e-02       2.175005607910e+04 
       1.042526910382e-02       2.191519719484e+04 
       1.056805034327e-02       2.207751269996e+04 
       1.071087982878e-02       2.223702341593e+04 
       1.085375648083e-02       2.239375348613e+04 
       1.099667929423e-02       2.254772653749e+04 
       1.113964733392e-02       2.269900754041e+04 
       1.128265973122e-02       2.284749399592e+04 
       1.142571568021e-02       2.299333826049e+04 
       1.156881443448e-02       2.313651343058e+04 
       1.171195530410e-02       2.327705599407e+04 
       1.185513765282e-02       2.341498177610e+04 
       1.199836089540e-02       2.355032050053e+04 
       1.214162449527e-02       2.368308135718e+04 
       1.228492796224e-02       2.381329286476e+04 
       1.242827085044e-02       2.394097914615e+04 
       1.257165275638e-02       2.406616042076e+04 
       1.271507331716e-02       2.418886016126e+04 
       1.285853220881e-02       2.430911807631e+04 
       1.300202914476e-02       2.442693515878e+04 
       1.314556387440e-02       2.454234184207e+04 
       1.328913618173e-02       2.465534160614e+04 
       1.343274588417e-02       2.476597723354e+04 
       1.357639283139e-02       2.487426313050e+04 
       1.372007690426e-02       2.498025108027e+04 
       1.386379801390e-02       2.508390377897e+04 
       1.400755610071e-02       2.518525770024e+04 
       1.415135113358e-02       2.528439540594e+04 
       1.429518310912e-02       2.538123447321e+04 
       1.443905205092e-02       2.547592050071e+04 
       1.458295800892e-02       2.556832810591e+04 
       1.472690105878e-02       2.565859253174e+04 
       1.487088130136e-02       2.574670121962e+04 
       1.501489886219e-02       2.583268533537e+04 
       1.515895389101e-02       2.591653397358e+04 
       1.530304656137e-02       2.599827655309e+04 
       1.544717707023e-02       2.607794704878e+04 
       1.559134563765e-02       2.615557760310e+04 
       1.573555250644e-02       2.623116587934e+04 
       1.587979794195e-02       2.630470839646e+04 
       1.602408223177e-02       2.637628938078e+04 
       1.616840568556e-02       2.644587635054e+04 
       1.631276863489e-02       2.651351320372e+04 
       1.645717143305e-02       2.657920134777e+04 
       1.660161445495e-02       2.664297247457e+04 
       1.674609809703e-02       2.670484518574e+04 
       1.689062277720e-02       2.676480844097e+04 
       1.703518893475e-02       2.682291428598e+04 
       1.717979703039e-02       2.687919885652e+04 
       1.732444754623e-02       2.693364555272e+04 
       1.746914098576e-02       2.698625134664e+04 
       1.761387787396e-02       2.703711772639e+04 
       1.775865875733e-02       2.708616589663e+04 
       1.790348420398e-02       2.713346395454e+04 
       1.804835480375e-02       2.717910110472e+04 
       1.819327116832e-02       2.722294755235e+04 
       1.833823393134e-02       2.726511431569e+04 
       1.848324374865e-02       2.730555980688e+04 
       1.862830129838e-02       2.734439687722e+04 
       1.877340728122e-02       2.738161499437e+04 
       1.891856242059e-02       2.741706141182e+04 
       1.906376746293e-02       2.745108304054e+04 
       1.920902317786e-02       2.748342499747e+04 
       1.935433035856e-02       2.751422326074e+04 
       1.949968982196e-02       2.754338982460e+04 
       1.964510240911e-02       2.757107370976e+04 
       1.979056898548e-02       2.759721779301e+04 
       1.993609044128e-02       2.762186404434e+04 
       2.008166769185e-02       2.764499100431e+04 
       2.022730167800e-02       2.766666802228e+04 
       2.037299336644e-02       2.768687434114e+04 
       2.051874375015e-02       2.770564577005e+04 
       2.066455384882e-02       2.772296073177e+04 
       2.081042470929e-02       2.773892227017e+04 
       2.095635740605e-02       2.775346081063e+04 
       2.110235304165e-02       2.776657986058e+04 
       2.124841274726e-02       2.777843348234e+04 
       2.139453768314e-02       2.778889469821e+04 
       2.154072903922e-02       2.779801387809e+04 
       2.168698803564e-02       2.780584600961e+04 
       2.183331592329e-02       2.781232573590e+04 
       2.197971398446e-02       2.781759433849e+04 
       2.212618353343e-02       2.782152029138e+04 
       2.227272591710e-02       2.782427597110e+04 
       2.241934251566e-02       2.782578323177e+04 
       2.256603474325e-02       2.782595826550e+04 
       2.271280404869e-02       2.782512615424e+04 
       2.285965191619e-02       2.782299312997e+04 
       2.300657986608e-02       2.781970141861e+04 
       2.315358945563e-02       2.781521240214e+04 
       2.330068227978e-02       2.780956679948e+04 
       2.344785997200e-02       2.780277985101e+04 
       2.359512420516e-02       2.779507154386e+04 
       2.374247669233e-02       2.778610324703e+04 
       2.388991918774e-02       2.777605387326e+04 
       2.403745348770e-02       2.776491384459e+04 
       2.418508143154e-02       2.775280494923e+04 
       2.433280490260e-02       2.773956256811e+04 
       2.448062582923e-02       2.772537481912e+04 
       2.462854618589e-02       2.771013918383e+04 
       2.477656799417e-02       2.769384689849e+04 
       2.492469332393e-02       2.767657658361e+04 
       2.507292429444e-02       2.765839383902e+04 
       2.522126307560e-02       2.763920920707e+04 
       2.536971188907e-02       2.761907019597e+04 
       2.551827300964e-02       2.759802051049e+04 
       2.566694876641e-02       2.757592183104e+04 
       2.581574154423e-02       2.755316101888e+04 
       2.596465378502e-02       2.752931924066e+04 
       2.611368798917e-02       2.750470319948e+04 
       2.626284671707e-02       2.747898331570e+04 
       2.641213259058e-02       2.745274606072e+04 
       2.656154829457e-02       2.742548535752e+04 
       2.671109657857e-02       2.739734489681e+04 
       2.686078025841e-02       2.736839205638e+04 
       2.701060221791e-02       2.733891870634e+04 
       2.716056541070e-02       2.730824844083e+04 
       2.731067286197e-02       2.727705244642e+04 
       2.746092767041e-02       2.724499923394e+04 
       2.761133301013e-02       2.721225286455e+04 
       2.776189213266e-02       2.717869806931e+04 
       2.791260836902e-02       2.714443744241e+04 
       2.806348513190e-02       2.710936939888e+04 
       2.821452591779e-02       2.707369129046e+04 
       2.836573430935e-02       2.703726430497e+04 
       2.851711397771e-02       2.700030267969e+04 
       2.866866868494e-02       2.696237521473e+04 
       2.882040228656e-02       2.692396436820e+04 
       2.897231873413e-02       2.688490348790e+04 
       2.912442207801e-02       2.684525632908e+04 
       2.927671647007e-02       2.680480796614e+04 
       2.942920616661e-02       2.676381413029e+04 
       2.958189553139e-02       2.672222810278e+04 
       2.973478903865e-02       2.667998663928e+04 
       2.988789127636e-02       2.663721808329e+04 
       3.004120694951e-02       2.659386481843e+04 
       3.019474088356e-02       2.654981487769e+04 
       3.034849802799e-02       2.650529310820e+04 
       3.050248346001e-02       2.646023443262e+04 
       3.065670238834e-02       2.641460978796e+04 
       3.081116015720e-02       2.636855822572e+04 
       3.096586225042e-02       2.632187130085e+04 
       3.112081429570e-02       2.627454815572e+04 
       3.127602206904e-02       2.622698841914e+04 
       3.143149149931e-02       2.617875958383e+04 
       3.158722867303e-02       2.613015400606e+04 
       3.174323983935e-02       2.608092734433e+04 
       3.189953141513e-02       2.603137631325e+04 
       3.205610999035e-02       2.598122249327e+04 
       3.221298233361e-02       2.593077283918e+04 
       3.237015539793e-02       2.587966841676e+04 
       3.252763632675e-02       2.582832118107e+04 
       3.268543246020e-02       2.577651197575e+04 
       3.284355134156e-02       2.572428837021e+04 
       3.300200072404e-02       2.567156470340e+04 
       3.316078857786e-02       2.561856504368e+04 
       3.331992309755e-02       2.556504102210e+04 
       3.347941270964e-02       2.551112126092e+04 
       3.363926608057e-02       2.545702120887e+04 
       3.379949212508e-02       2.540235568836e+04 
       3.396010001484e-02       2.534732510546e+04 
       3.412109918751e-02       2.529192438480e+04 
       3.428249935617e-02       2.523635724975e+04 
       3.444431051922e-02       2.518021769545e+04 
       3.460654297066e-02       2.512384560301e+04 
       3.476920731087e-02       2.506713815606e+04 
       3.493231445786e-02       2.501009228345e+04 
       3.509587565905e-02       2.495277977312e+04 
       3.525990250361e-02       2.489508950006e+04 
       3.542440693531e-02       2.483718716553e+04 
       3.558940126609e-02       2.477872855443e+04 
       3.575489819015e-02       2.472016684993e+04 
       3.592091079883e-02       2.466127816263e+04 
       3.608745259609e-02       2.460207606686e+04 
       3.625453751490e-02       2.454258763381e+04 
       3.642217993431e-02       2.448286944673e+04 
       3.659039469744e-02       2.442283152188e+04 
       3.675919713034e-02       2.436250718356e+04 
       3.692860306186e-02       2.430196191501e+04 
       3.709862884453e-02       2.424114379713e+04 
       3.726929137646e-02       2.418014015177e+04 
       3.744060812450e-02       2.411872715746e+04 
       3.761259714854e-02       2.405719966969e+04 
       3.778527712720e-02       2.399538040119e+04 
       3.795866738479e-02       2.393331996376e+04 
       3.813278791992e-02       2.387096741448e+04 
       3.830765943553e-02       2.380844797593e+04 
       3.848330337071e-02       2.374567383590e+04 
       3.865974193429e-02       2.368265316739e+04 
       3.883699814037e-02       2.361942860838e+04 
       3.901509584588e-02       2.355596687106e+04 
       3.919405979036e-02       2.349225356536e+04 
       3.937391563813e-02       2.342830747478e+04 
       3.955469002295e-02       2.336419706136e+04 
       3.973641059542e-02       2.329983912742e+04 
       3.991910607329e-02       2.323525079543e+04 
       4.010280629485e-02       2.317047735164e+04 
       4.028754227581e-02       2.310541001575e+04 
       4.047334626964e-02       2.304019837591e+04 
       4.066025183198e-02       2.297472351648e+04 
       4.084829388911e-02       2.290912862761e+04 
       4.103750881102e-02       2.284308914869e+04 
       4.122793448945e-02       2.277708331610e+04 
       4.141961042110e-02       2.271079070269e+04 
       4.161257779665e-02       2.264411807460e+04 
       4.180687959602e-02       2.257744105642e+04 
       4.200256069029e-02       2.251045738592e+04 
       4.219966795100e-02       2.244315482227e+04 
       4.239825036737e-02       2.237570983763e+04 
       4.259835917215e-02       2.230801669828e+04 
       4.280004797691e-02       2.224012561018e+04 
       4.300337291765e-02       2.217189677004e+04 
       4.320839281146e-02       2.210347481585e+04 
       4.341516932565e-02       2.203484047210e+04 
       4.362376716012e-02       2.196596968621e+04 
       4.383425424448e-02       2.189680763871e+04 
       4.404670195137e-02       2.182730049255e+04 
       4.426118532740e-02       2.175767517881e+04 
       4.447778334366e-02       2.168765977871e+04 
       4.469657916767e-02       2.161739203298e+04 
       4.491766045917e-02       2.154681940062e+04 
       4.514111969197e-02       2.147590627017e+04 
       4.536705450499e-02       2.140470200310e+04 
       4.559556808539e-02       2.133328539768e+04 
       4.582676958757e-02       2.126136888902e+04 
       4.606077459187e-02       2.118920018762e+04 
       4.629770560776e-02       2.111665019617e+04 
       4.653769262651e-02       2.104374095327e+04 
       4.678087372937e-02       2.097044947595e+04 
       4.702739575795e-02       2.089670981737e+04 
       4.727741505446e-02       2.082256851807e+04 
       4.753109828060e-02       2.074805677382e+04 
       4.778862332534e-02       2.067308261342e+04 
       4.805018031296e-02       2.059749734303e+04 
       4.831597272506e-02       2.052153147349e+04 
       4.858621865181e-02       2.044498637241e+04 
       4.886115219062e-02       2.036794337981e+04 
       4.914102501314e-02       2.029028090358e+04 
       4.942610812492e-02       2.021203537758e+04 
       4.971669384660e-02       2.013316167631e+04 
       5.001309804999e-02       2.005359524056e+04 
       5.031566268877e-02       1.997331207112e+04 
       5.062475867059e-02       1.989230350921e+04 
       5.094078912604e-02       1.981047790249e+04 
       5.126419314064e-02       1.972781472548e+04 
       5.159545002879e-02       1.964420760826e+04 
       5.193508424434e-02       1.955972638418e+04 
       5.228367104196e-02       1.947416834183e+04 
       5.264184302710e-02       1.938756124364e+04 
       5.301029776201e-02       1.929974717754e+04 
       5.338980663201e-02       1.921075130605e+04 
       5.378122522182e-02       1.912041368550e+04 
       5.418550550951e-02       1.902856591986e+04 
       5.460371025766e-02       1.893523913144e+04 
       5.503703007272e-02       1.884013420167e+04 
       5.548680371942e-02       1.874329598685e+04 
       5.595454242401e-02       1.864442598479e+04 
       5.644195908775e-02       1.854338418089e+04 
       5.695100357075e-02       1.843990209387e+04 
       5.748390551078e-02       1.833389125408e+04 
       5.804322652805e-02       1.822489351656e+04 
       5.863192415354e-02       1.811268197219e+04 
       5.925343042381e-02       1.799684394720e+04 
       5.991174881879e-02       1.787702888798e+04 
       6.061157407071e-02       1.775245493931e+04 
       6.135844027821e-02       1.762270486551e+04 
       6.215890354403e-02       1.748695428643e+04 
       6.302076560789e-02       1.734415056997e+04 
       6.395334379755e-02       1.719313348188e+04 
       6.496778832532e-02       1.703243618024e+04 
       6.607743719218e-02       1.686015835995e+04 
       6.729817579493e-02       1.667387247354e+04 
       6.864872317387e-02       1.647052296961e+04 
       7.015068699861e-02       1.624613482060e+04 
       7.182810620066e-02       1.599582820358e+04 
       7.370605368592e-02       1.571352519331e+04 
       7.580780556389e-02       1.539231090616e+04 
