# dimensionless total lensed [l(l+1)/2pi] C_l's
# for l=2 to 2500, i.e. number of multipoles equal to 2499
#
# -> if you prefer output in CAMB/HealPix/LensPix units/order, set 'format' to 'camb' in input file
# -> if you don't want to see such a header, set 'headers' to 'no' in input file
# -> for CMB lensing (phi), these are C_l^phi-phi for the lensing potential.
#    Remember the conversion factors:
#    C_l^dd (deflection) = l(l+1) C_l^phi-phi
#    C_l^gg (shear/convergence) = 1/4 (l(l+1))^2 C_l^phi-phi
#
# 1:l     2:TT                     3:EE                     4:TE                     5:BB                     6:phiphi                 7:TPhi                   8:Ephi               
    2       1.494882588097e-10       7.299070611260e-15       4.817206375328e-13       2.371500273951e-19       8.820525139485e-09       4.854890838415e-10      -2.511548685839e-12 
    3       1.409153261415e-10       1.236082265529e-14       6.061995420026e-13       4.745305891746e-19       5.421685326880e-09       3.460278125729e-10      -2.208999987711e-12 
    4       1.324559102733e-10       1.443222266769e-14       6.270426048661e-13       7.913884970689e-19       3.767293675386e-09       2.633962091967e-10      -1.762137047642e-12 
    5       1.257511966114e-10       1.334610536366e-14       5.871519505828e-13       1.188008852528e-18       2.811486756459e-09       2.090154075998e-10      -1.307917003758e-12 
    6       1.208108385229e-10       1.029727962674e-14       5.166017921041e-13       1.664729601638e-18       2.196123187724e-09       1.706923687293e-10      -8.936819658478e-13 
    7       1.173384114938e-10       6.823972788914e-15       4.357876815109e-13       2.221930334745e-18       1.771931449853e-09       1.424027370906e-10      -5.435982751091e-13 
    8       1.150156934111e-10       4.031854918561e-15       3.569609667090e-13       2.860019875013e-18       1.464666107913e-09       1.207772680600e-10      -2.684415713368e-13 
    9       1.135971914619e-10       2.330707578084e-15       2.873837489569e-13       3.579423146477e-18       1.233435400016e-09       1.037901415635e-10      -6.983555746620e-14 
   10       1.128691012074e-10       1.568836932926e-15       2.311340054330e-13       4.380567839197e-18       1.054183787816e-09       9.019959447544e-11       5.755298347326e-14 
   11       1.126914087042e-10       1.344733190728e-15       1.898867109276e-13       5.263871395087e-18       8.887248610874e-10       7.947790840459e-11       1.233191918098e-13 
   12       1.129547470645e-10       1.288389929967e-15       1.633705268722e-13       6.229728822714e-18       7.765606866993e-10       7.025351976579e-11       1.421094796359e-13 
   13       1.135409730140e-10       1.201969552740e-15       1.498150432686e-13       7.278501813442e-18       6.844869870769e-10       6.271836254973e-11       1.276909418607e-13 
   14       1.143505577842e-10       1.057366527930e-15       1.466046456736e-13       8.410509576192e-18       6.078792923272e-10       5.618807909948e-11       9.279818402392e-14 
   15       1.153907692336e-10       9.143486949124e-16       1.507952766965e-13       9.626021736063e-18       5.433961652056e-10       5.073313644080e-11       4.965366029756e-14 
   16       1.166198721627e-10       8.341335111864e-16       1.593669288988e-13       1.092525355601e-17       4.885705483280e-10       4.610871368176e-11       7.345723664242e-15 
   17       1.179582517549e-10       8.341360700306e-16       1.697571270922e-13       1.230836364424e-17       4.415390214554e-10       4.211551356101e-11      -2.778492622587e-14 
   18       1.194078234882e-10       8.870017764315e-16       1.801726245419e-13       1.377545299013e-17       4.007174698706e-10       3.856921874746e-11      -5.219012037472e-14 
   19       1.209764053360e-10       9.600418846171e-16       1.896401331970e-13       1.532657380084e-17       3.654584670000e-10       3.543965534159e-11      -6.497909060938e-14 
   20       1.226094269625e-10       1.019739194892e-15       1.973813621055e-13       1.696172130457e-17       3.344033004700e-10       3.267265717206e-11      -6.696688994322e-14 
   21       1.243186869721e-10       1.069104813135e-15       2.034662203610e-13       1.868085877813e-17       3.070645436128e-10       3.022405090042e-11      -6.028692130830e-14 
   22       1.261033128185e-10       1.126353714757e-15       2.083514734440e-13       2.048390775404e-17       2.827885225380e-10       2.801308236242e-11      -4.828744745919e-14 
   23       1.279526153049e-10       1.210752630683e-15       2.125131421815e-13       2.237077778045e-17       2.612417274108e-10       2.600975858229e-11      -3.392390454169e-14 
   24       1.298348136246e-10       1.340707745279e-15       2.165006543625e-13       2.434135658210e-17       2.419263069538e-10       2.418162936383e-11      -2.030683262528e-14 
   25       1.317667611198e-10       1.516630363423e-15       2.207791305971e-13       2.639554477099e-17       2.246153806760e-10       2.253787163456e-11      -9.281101092968e-15 
   26       1.337606369785e-10       1.731576330530e-15       2.257508800228e-13       2.853324380321e-17       2.089959630400e-10       2.108010508782e-11      -2.182298581507e-15 
   27       1.357974085484e-10       1.979172087028e-15       2.314521640388e-13       3.075438640658e-17       1.948807963654e-10       1.977447738656e-11       7.990235123496e-16 
   28       1.378412747244e-10       2.253035062275e-15       2.377319757904e-13       3.305892889784e-17       1.820265893902e-10       1.856928550155e-11       5.280690518914e-17 
   29       1.399020181065e-10       2.552636970013e-15       2.442911819645e-13       3.544688627350e-17       1.703677856399e-10       1.746029423934e-11      -3.619092408803e-15 
   30       1.419940230407e-10       2.879144636340e-15       2.506890681976e-13       3.791831258965e-17       1.597792975778e-10       1.644943523675e-11      -8.996805119309e-15 
   31       1.441213082100e-10       3.233103881824e-15       2.564035268295e-13       4.047330089196e-17       1.500452626773e-10       1.552932277315e-11      -1.464893451031e-14 
   32       1.462868541505e-10       3.612376184335e-15       2.610470332351e-13       4.311200674043e-17       1.411154887348e-10       1.469063723352e-11      -1.970853307862e-14 
   33       1.484840421644e-10       4.013328523710e-15       2.642203671094e-13       4.583464186051e-17       1.329268972685e-10       1.391558126164e-11      -2.336091940543e-14 
   34       1.507000480193e-10       4.432830542416e-15       2.655408373000e-13       4.864146795775e-17       1.253649782984e-10       1.318245433056e-11      -2.485857498078e-14 
   35       1.529413661783e-10       4.873592876902e-15       2.649516808378e-13       5.153277857121e-17       1.183910904792e-10       1.249193126004e-11      -2.430501644511e-14 
   36       1.552155559530e-10       5.340766094592e-15       2.625235365144e-13       5.450891873458e-17       1.119493509291e-10       1.184911274639e-11      -2.215596318925e-14 
   37       1.575248042635e-10       5.839669302664e-15       2.583681238468e-13       5.757027008180e-17       1.059559957932e-10       1.125617720645e-11      -1.897057027241e-14 
   38       1.598696071525e-10       6.372548638679e-15       2.526087692038e-13       6.071716798274e-17       1.003955769489e-10       1.071200385168e-11      -1.522523200642e-14 
   39       1.622450731381e-10       6.940792595894e-15       2.454056636884e-13       6.394996232137e-17       9.525048174807e-11       1.021187730218e-11      -1.145330189302e-14 
   40       1.646390510917e-10       7.545797942066e-15       2.369675865448e-13       6.726904275296e-17       9.047166987355e-11       9.747172036973e-12      -8.304217550741e-15 
   41       1.670377303359e-10       8.188726376142e-15       2.274923054736e-13       7.067480055261e-17       8.599576656341e-11       9.308089627212e-12      -6.380363665273e-15 
   42       1.694462976246e-10       8.869683256219e-15       2.169572942302e-13       7.416749348283e-17       8.180962524565e-11       8.893723849024e-12      -5.666515718793e-15 
   43       1.718738395122e-10       9.588268697608e-15       2.052658921236e-13       7.774734095565e-17       7.790216762225e-11       8.504724752975e-12      -5.926755892673e-15 
   44       1.743273754286e-10       1.034377820684e-14       1.923026938219e-13       8.141456038421e-17       7.424500986808e-11       8.140406462251e-12      -6.854324253101e-15 
   45       1.768115353835e-10       1.113546925252e-14       1.779395220481e-13       8.516933023880e-17       7.080260788963e-11       7.799187487136e-12      -8.114313364992e-15 
   46       1.793280914849e-10       1.196349911516e-14       1.620586286883e-13       8.901166703380e-17       6.756955681123e-11       7.480338810736e-12      -9.497683814903e-15 
   47       1.818758436503e-10       1.282823630351e-14       1.445341533929e-13       9.294151085047e-17       6.454209881989e-11       7.182563391973e-12      -1.080556168249e-14 
   48       1.844504124976e-10       1.372999819733e-14       1.252245213011e-13       9.695875621037e-17       6.170687249671e-11       6.903406033597e-12      -1.180421885331e-14 
   49       1.870439755122e-10       1.466904916170e-14       1.039715257852e-13       1.010632495520e-16       5.904019861219e-11       6.639170695462e-12      -1.222324840126e-14 
   50       1.896484737157e-10       1.564560059157e-14       8.064320814564e-14       1.052547830775e-16       5.651521362870e-11       6.385993419649e-12      -1.184191094463e-14 
   51       1.922668698984e-10       1.665981543413e-14       5.527834623471e-14       1.095330801771e-16       5.412720988352e-11       6.143596275081e-12      -1.078003766073e-14 
   52       1.949044902556e-10       1.771180163459e-14       2.797960010356e-14       1.138978016864e-16       5.187393916549e-11       5.912409449675e-12      -9.282935642964e-15 
   53       1.975657228450e-10       1.880160856098e-14      -1.125740467401e-15       1.183485465408e-16       4.974802945851e-11       5.692477063363e-12      -7.642387748770e-15 
   54       2.002539170718e-10       1.992922520946e-14      -3.188461219137e-14       1.228848490808e-16       4.773664004074e-11       5.483428863101e-12      -6.198977204388e-15 
   55       2.029714302503e-10       2.109460506381e-14      -6.415480473851e-14       1.275062306619e-16       4.582538049550e-11       5.284683728446e-12      -5.262261184700e-15 
   56       2.057200111053e-10       2.229775201787e-14      -9.792811538676e-14       1.322123756689e-16       4.401199795624e-11       5.096184234048e-12      -4.842743863248e-15 
   57       2.085003354807e-10       2.353865265440e-14      -1.332357852146e-13       1.370029945080e-16       4.229548594626e-11       4.917794989837e-12      -4.857391441612e-15 
   58       2.113117748875e-10       2.481725072083e-14      -1.701137299994e-13       1.418777725685e-16       4.067194348897e-11       4.749067964426e-12      -5.205092504269e-15 
   59       2.141523017194e-10       2.613344637304e-14      -2.086028680080e-13       1.468363696442e-16       3.913439633356e-11       4.589223211707e-12      -5.765781934069e-15 
   60       2.170183944675e-10       2.748709541896e-14      -2.487494477870e-13       1.518784193551e-16       3.767261818065e-11       4.437129597439e-12      -6.399564827703e-15 
   61       2.199065254229e-10       2.887795456812e-14      -2.905959823505e-13       1.570036067190e-16       3.627597094767e-11       4.291610821340e-12      -6.975583463375e-15 
   62       2.228182284304e-10       3.030550453042e-14      -3.341509322623e-13       1.622119225219e-16       3.494307499307e-11       4.152487353601e-12      -7.468171829167e-15 
   63       2.257560056258e-10       3.176908568713e-14      -3.794127682971e-13       1.675034652774e-16       3.367400211776e-11       4.019735235557e-12      -7.880827606527e-15 
   64       2.287218016346e-10       3.326794616062e-14      -4.263787937113e-13       1.728783699778e-16       3.246736672308e-11       3.893172646940e-12      -8.218439935954e-15 
   65       2.317169589976e-10       3.480123934482e-14      -4.750451739814e-13       1.783368099961e-16       3.132024282825e-11       3.772450953856e-12      -8.487357057021e-15 
   66       2.347421735978e-10       3.636802143572e-14      -5.254069665431e-13       1.838789989865e-16       3.022808108792e-11       3.657045756753e-12      -8.695453948408e-15 
   67       2.377974500862e-10       3.796724896182e-14      -5.774581505300e-13       1.895051927858e-16       2.918462580958e-11       3.546247938394e-12      -8.852199967921e-15 
   68       2.408825671558e-10       3.959788443711e-14      -6.311900801886e-13       1.952156798475e-16       2.818358590187e-11       3.439360044146e-12      -8.967748645656e-15 
   69       2.439986824741e-10       4.125924369958e-14      -6.865864147496e-13       2.010107460422e-16       2.722422637378e-11       3.336351640386e-12      -9.049841701807e-15 
   70       2.471469743716e-10       4.295071483964e-14      -7.436272099184e-13       2.068907061073e-16       2.630676595266e-11       3.237321277285e-12      -9.106396330474e-15 
   71       2.503281298003e-10       4.467165659528e-14      -8.022903929134e-13       2.128559160625e-16       2.543068595804e-11       3.142299271727e-12      -9.146469407725e-15 
   72       2.535423127987e-10       4.642139864787e-14      -8.625517518891e-13       2.189067748177e-16       2.459469217670e-11       3.051244006752e-12      -9.180300122753e-15 
   73       2.567891329581e-10       4.819924191784e-14      -9.243849253596e-13       2.250437257807e-16       2.379667673770e-11       2.964038230987e-12      -9.219352609031e-15 
   74       2.600676138880e-10       5.000445886053e-14      -9.877613916221e-13       2.312672584654e-16       2.303367998747e-11       2.880485358092e-12      -9.276358575468e-15 
   75       2.633761616828e-10       5.183629376188e-14      -1.052650458181e-12       2.375779100997e-16       2.230185236480e-11       2.800305766191e-12      -9.365359937562e-15 
   76       2.667132128292e-10       5.369382304801e-14      -1.119017207293e-12       2.439761693173e-16       2.159741008323e-11       2.723211222164e-12      -9.497674027231e-15 
   77       2.700793840417e-10       5.557550615145e-14      -1.186815923471e-12       2.504621634038e-16       2.091978765038e-11       2.649152002965e-12      -9.668845555503e-15 
   78       2.734756589905e-10       5.747955290005e-14      -1.255995442670e-12       2.570359166750e-16       2.026899363126e-11       2.578108324260e-12      -9.869381674913e-15 
   79       2.769027263206e-10       5.940405370420e-14      -1.326501038202e-12       2.636974429395e-16       1.964465038158e-11       2.510014148763e-12      -1.008857800059e-14 
   80       2.803609620506e-10       6.134697698211e-14      -1.398274368244e-12       2.704467450990e-16       1.904597630163e-11       2.444755087687e-12      -1.031447763056e-14 
   81       2.838504119706e-10       6.330616658500e-14      -1.471253423354e-12       2.772838147481e-16       1.847176809016e-11       2.382166302196e-12      -1.053383016611e-14 
   82       2.873707740407e-10       6.527933922236e-14      -1.545372473982e-12       2.842086317749e-16       1.792038299827e-11       2.322030404855e-12      -1.073205073209e-14 
   83       2.909213807898e-10       6.726408188714e-14      -1.620562017980e-12       2.912211639604e-16       1.738972108324e-11       2.264075361083e-12      -1.089317899725e-14 
   84       2.945015620725e-10       6.925807971611e-14      -1.696756234776e-12       2.983213814894e-16       1.687773561848e-11       2.208039524123e-12      -1.100319422852e-14 
   85       2.981118409955e-10       7.125984861266e-14      -1.773916882707e-12       3.055093041206e-16       1.638410041654e-11       2.153883724391e-12      -1.106068165777e-14 
   86       3.017529049007e-10       7.326811992130e-14      -1.852013285542e-12       3.127849611395e-16       1.590878766144e-11       2.101610655937e-12      -1.106786746001e-14 
   87       3.054252315898e-10       7.528162207013e-14      -1.931015250649e-12       3.201483769959e-16       1.545155558955e-11       2.051199913096e-12      -1.102743513467e-14 
   88       3.091290781152e-10       7.729908186893e-14      -2.010893142671e-12       3.275995711550e-16       1.501193962003e-11       2.002607020229e-12      -1.094254092984e-14 
   89       3.128644695708e-10       7.931922580723e-14      -2.091617957198e-12       3.351385579475e-16       1.458924348531e-11       1.955762461471e-12      -1.081682926655e-14 
   90       3.166311878833e-10       8.134078135244e-14      -2.173161394445e-12       3.427653464207e-16       1.418253036148e-11       1.910570710479e-12      -1.065444816300e-14 
   91       3.204287606029e-10       8.336247824787e-14      -2.255495932925e-12       3.504799401890e-16       1.379061399882e-11       1.866909260173e-12      -1.046006465884e-14 
   92       3.242564496942e-10       8.538304981089e-14      -2.338594903121e-12       3.582823372845e-16       1.341204985216e-11       1.824627652486e-12      -1.023888023944e-14 
   93       3.281135121971e-10       8.740113673323e-14      -2.422425232205e-12       3.661726460393e-16       1.304547784374e-11       1.783584226737e-12      -9.996134800296e-15 
   94       3.320000513993e-10       8.941497911216e-14      -2.506924269941e-12       3.741514529916e-16       1.269072888661e-11       1.743764794494e-12      -9.735499698721e-15 
   95       3.359162735517e-10       9.142268028528e-14      -2.592019597395e-12       3.822195102943e-16       1.234786915785e-11       1.705180102566e-12      -9.460470410363e-15 
   96       3.398622200277e-10       9.342230016150e-14      -2.677636018767e-12       3.903776260374e-16       1.201685930613e-11       1.667829258299e-12      -9.174864745336e-15 
   97       3.438377598467e-10       9.541185518078e-14      -2.763695534469e-12       3.986266656920e-16       1.169755040892e-11       1.631699277075e-12      -8.882831251758e-15 
   98       3.478425821964e-10       9.738931827391e-14      -2.850117314190e-12       4.069675535530e-16       1.138967992976e-11       1.596764629819e-12      -8.588857619281e-15 
   99       3.518761889561e-10       9.935261882220e-14      -2.936817669971e-12       4.154012741833e-16       1.109286767550e-11       1.562986790500e-12      -8.297779082633e-15 
  100       3.559378872195e-10       1.012996426173e-13      -3.023710029273e-12       4.239288738565e-16       1.080661175356e-11       1.530313783636e-12      -8.014786825149e-15 
  101       3.600267818173e-10       1.032282318209e-13      -3.110704908051e-12       4.325514620009e-16       1.053028452916e-11       1.498679731796e-12      -7.745436382305e-15 
  102       3.641417678404e-10       1.051361849245e-13      -3.197709883823e-12       4.412702126423e-16       1.026312858258e-11       1.468004403102e-12      -7.495656045260e-15 
  103       3.682815231627e-10       1.070212567092e-13      -3.284629568743e-12       4.500863658480e-16       1.000425266639e-11       1.438192758735e-12      -7.271755264381e-15 
  104       3.724447907193e-10       1.088812613415e-13      -3.371371756706e-12       4.590010992662e-16       9.752833754838e-12       1.409157042484e-12      -7.078969830356e-15 
  105       3.766312848752e-10       1.107143976080e-13      -3.457866868386e-12       4.680151198735e-16       9.508762983852e-12       1.380887422389e-12      -6.916855499280e-15 
  106       3.808408941244e-10       1.125189677451e-13      -3.544051094966e-12       4.771290195125e-16       9.272079837469e-12       1.353390092599e-12      -6.783284883275e-15 
  107       3.850733980264e-10       1.142932793054e-13      -3.629860499086e-12       4.863433998869e-16       9.042772091096e-12       1.326665381151e-12      -6.675847523272e-15 
