# dimensionless total lensed [l(l+1)/2pi] C_l's
# for l=2 to 2500, i.e. number of multipoles equal to 2499
#
# -> if you prefer output in CAMB/HealPix/LensPix units/order, set 'format' to 'camb' in input file
# -> if you don't want to see such a header, set 'headers' to 'no' in input file
# -> for CMB lensing (phi), these are C_l^phi-phi for the lensing potential.
#    Remember the conversion factors:
#    C_l^dd (deflection) = l(l+1) C_l^phi-phi
#    C_l^gg (shear/convergence) = 1/4 (l(l+1))^2 C_l^phi-phi
#
# 1:l     2:TT                     3:EE                     4:TE                     5:BB                     6:phiphi                 7:TPhi                   8:Ephi               
    2       1.496346027462e-10       7.300059234711e-15       4.829765510512e-13       2.388988068509e-19       8.827246357561e-09       4.849963007112e-10      -2.511118684262e-12 
    3       1.410364282074e-10       1.236022884692e-14       6.076060584164e-13       4.780292954967e-19       5.416148599189e-09       3.458123756672e-10      -2.208877130589e-12 
    4       1.325497219954e-10       1.443086103812e-14       6.285079193525e-13       7.972221887223e-19       3.765742980294e-09       2.632781180051e-10      -1.761989263730e-12 
    5       1.258233462896e-10       1.334478176837e-14       5.885263059444e-13       1.196764020865e-18       2.811492610225e-09       2.089209240257e-10      -1.307734825081e-12 
    6       1.208673664380e-10       1.029656016935e-14       5.177595570654e-13       1.676994448953e-18       2.196613351682e-09       1.705968874143e-10      -8.935408294376e-13 
    7       1.173846850648e-10       6.824515786808e-15       4.366745039187e-13       2.238295003718e-18       1.772466971883e-09       1.423031425981e-10      -5.435074464973e-13 
    8       1.150548522906e-10       4.033789926191e-15       3.575946045732e-13       2.881076624355e-18       1.464922955357e-09       1.206860612716e-10      -2.683975574704e-13 
    9       1.136322397705e-10       2.333692377081e-15       2.878352610282e-13       3.605766469764e-18       1.233282608036e-09       1.037180749550e-10      -6.983178184330e-14 
   10       1.129011642340e-10       1.572325029018e-15       2.314739173643e-13       4.412794526122e-18       1.053726626860e-09       9.014082144360e-11       5.751977805100e-14 
   11       1.127216369791e-10       1.348281784543e-15       1.901893447340e-13       5.302580536611e-18       8.886923908884e-10       7.941548178787e-11       1.232565070173e-13 
   12       1.129845310148e-10       1.291811761373e-15       1.637166823752e-13       6.275521763754e-18       7.765308626415e-10       7.020005438681e-11       1.420222530292e-13 
   13       1.135697866682e-10       1.205320181196e-15       1.502664636655e-13       7.331982058726e-18       6.844594932269e-10       6.267244537685e-11       1.275913126894e-13 
   14       1.143792215574e-10       1.060851834429e-15       1.471979631504e-13       8.472282656594e-18       6.078538071962e-10       5.614630779509e-11       9.269004291942e-14 
   15       1.154178022281e-10       9.182093564940e-16       1.515495081783e-13       9.696695044087e-18       5.433724166826e-10       5.069406803126e-11       4.954472885893e-14 
   16       1.166473158757e-10       8.385920681627e-16       1.602738189523e-13       1.100543616005e-17       4.885484011200e-10       4.607213846436e-11       7.247411601233e-15 
   17       1.179848365627e-10       8.393823569483e-16       1.708058335445e-13       1.239866609175e-17       4.415183019495e-10       4.208053598005e-11      -2.786280254377e-14 
   18       1.194340316683e-10       8.932224381683e-16       1.813360727819e-13       1.387648710481e-17       4.006981369618e-10       3.853417414165e-11      -5.224965575785e-14 
   19       1.210029074176e-10       9.674622660093e-16       1.908861000280e-13       1.543895251363e-17       3.654400937221e-10       3.540409068112e-11      -6.502671848050e-14 
   20       1.226358234074e-10       1.028632022434e-15       1.986809976944e-13       1.708605844781e-17       3.343859141918e-10       3.263804016687e-11      -6.700923125630e-14 
   21       1.243447873432e-10       1.079763116114e-15       2.047976084239e-13       1.881776897698e-17       3.070481551155e-10       3.019204151327e-11      -6.032723751012e-14 
   22       1.261294630312e-10       1.139073064780e-15       2.097026923172e-13       2.063400627433e-17       2.827729926105e-10       2.798474262374e-11      -4.832533036077e-14 
   23       1.279787446145e-10       1.225809275501e-15       2.138799003080e-13       2.253468048730e-17       2.612269460355e-10       2.598499725847e-11      -3.396434600693e-14 
   24       1.298602091266e-10       1.358351232704e-15       2.178857595849e-13       2.451967985460e-17       2.419122536635e-10       2.415905008744e-11      -2.036113500000e-14 
   25       1.317910268108e-10       1.537120823845e-15       2.221878567061e-13       2.658890553855e-17       2.246020197517e-10       2.251589446685e-11      -9.351826482161e-15 
   26       1.337839691689e-10       1.755194450792e-15       2.271889652954e-13       2.874225953170e-17       2.089832209604e-10       2.105751413990e-11      -2.259720661565e-15 
   27       1.358200243605e-10       2.006204851523e-15       2.329237783396e-13       3.097967518375e-17       1.948686131211e-10       1.975098540997e-11       7.215694516063e-16 
   28       1.378632320447e-10       2.283771864535e-15       2.392385216316e-13       3.330110948108e-17       1.820149364662e-10       1.854564689443e-11      -2.525835755538e-17 
   29       1.399233292429e-10       2.587378367942e-15       2.458311282702e-13       3.570657822754e-17       1.703566352061e-10       1.743721974259e-11      -3.697477973455e-15 
   30       1.420146796315e-10       2.918205644552e-15       2.522571964862e-13       3.819613636828e-17       1.597686159902e-10       1.642717339352e-11      -9.071257635043e-15 
   31       1.441412687924e-10       3.276815650742e-15       2.579906292615e-13       4.076987790114e-17       1.500350145219e-10       1.550767455065e-11      -1.471201276233e-14 
   32       1.463060314777e-10       3.661089876989e-15       2.626421531787e-13       4.342795940643e-17       1.411056418699e-10       1.466953318126e-11      -1.975673489441e-14 
   33       1.485022885409e-10       4.067418078818e-15       2.658114198562e-13       4.617059371312e-17       1.329174281376e-10       1.389531197251e-11      -2.339798373875e-14 
   34       1.507171708895e-10       4.492688005627e-15       2.671147384763e-13       4.899804367538e-17       1.253558738353e-10       1.316362007462e-11      -2.489489264990e-14 
   35       1.529572528854e-10       4.939599320029e-15       2.664950452440e-13       5.191060385999e-17       1.183823372093e-10       1.247489715944e-11      -2.434877243688e-14 
   36       1.552302293510e-10       5.413277807427e-15       2.640230268684e-13       5.490862032745e-17       1.119409328270e-10       1.183377913984e-11      -2.220957570250e-14 
   37       1.575384125552e-10       5.919022001860e-15       2.598106829018e-13       5.799247567001e-17       1.059478955682e-10       1.124200080031e-11      -1.903059655759e-14 
   38       1.598822802957e-10       6.459103252299e-15       2.539819115261e-13       6.116250574531e-17       1.003877769680e-10       1.069845744737e-11      -1.528706077075e-14 
   39       1.622568680854e-10       7.034953455882e-15       2.466977565019e-13       6.441906072276e-17       9.524296546498e-11       1.019861563809e-11      -1.151259338920e-14 
   40       1.646499309021e-10       7.648020488954e-15       2.381681371009e-13       6.776253044312e-17       9.046442354795e-11       9.734084873337e-12      -8.357079263588e-15 
   41       1.670475698745e-10       8.299510510114e-15       2.285921786909e-13       7.119330611160e-17       8.598877984196e-11       9.295293595280e-12      -6.423680977675e-15 
   42       1.694549829038e-10       8.989516811932e-15       2.179486515223e-13       7.471164464806e-17       8.180288751774e-11       8.881337892911e-12      -5.698775625107e-15 
   43       1.718813014503e-10       9.717605396027e-15       2.061423479136e-13       7.831776419109e-17       7.789566748051e-11       8.492797639952e-12      -5.948560971141e-15 
   44       1.743335986871e-10       1.048302854266e-14       1.930595629528e-13       8.201188057200e-17       7.423873580182e-11       8.128902263283e-12      -6.868801906489e-15 
   45       1.768165535559e-10       1.128500343009e-14       1.785730949131e-13       8.579417030011e-17       7.079654877145e-11       7.787991286638e-12      -8.126897733485e-15 
   46       1.793319353303e-10       1.212369165692e-14       1.625621563807e-13       8.966464734648e-17       6.756370154133e-11       7.469332277728e-12      -9.513737538323e-15 
   47       1.818785230718e-10       1.299948055525e-14       1.448961584047e-13       9.362324878416e-17       6.453643666782e-11       7.171649959397e-12      -1.082955136952e-14 
   48       1.844519111160e-10       1.391270953980e-14       1.254279621542e-13       9.766986569506e-17       6.170139373704e-11       6.892517199571e-12      -1.183947099687e-14 
   49       1.870442449127e-10       1.486366842359e-14       1.039929162729e-13       1.018043406287e-16       5.903489520751e-11       6.628272704932e-12      -1.227169096956e-14 
   50       1.896474380519e-10       1.585259604573e-14       8.045411989459e-14       1.060264615905e-16       5.651007938574e-11       6.375089948238e-12      -1.190395422383e-14 
   51       1.922644656436e-10       1.687967962331e-14       5.485492918682e-14       1.103359479781e-16       5.412223875016e-11       6.132716957731e-12      -1.085495064519e-14 
   52       1.949006797804e-10       1.794505231207e-14       2.730618299380e-14       1.147324564351e-16       5.186912496409e-11       5.901609379750e-12      -9.368836628228e-15 
   53       1.975604983143e-10       1.904879124881e-14      -2.055220856687e-15       1.192155813471e-16       4.974336616916e-11       5.681840504353e-12      -7.736086176109e-15 
   54       2.002473045162e-10       2.019091588171e-14      -3.306511287293e-14       1.237848521376e-16       4.773212210485e-11       5.473073134682e-12      -6.295808408131e-15 
   55       2.029634845439e-10       2.137140122422e-14      -6.557164694425e-14       1.284397852833e-16       4.582100291265e-11       5.274751218520e-12      -5.356397505999e-15 
   56       2.057107806152e-10       2.259022529745e-14      -9.956838217433e-14       1.331800616893e-16       4.400775565427e-11       5.086794935014e-12      -4.929089701618e-15 
   57       2.084898498168e-10       2.384733054889e-14      -1.350921373276e-13       1.380053886405e-16       4.229137373313e-11       4.909029009408e-12      -4.932275421496e-15 
   58       2.113000410793e-10       2.514260889694e-14      -1.721854486742e-13       1.429154483820e-16       4.066795622711e-11       4.740958936985e-12      -5.266522136136e-15 
   59       2.141393002063e-10       2.647590064268e-14      -2.108969472210e-13       1.479098975459e-16       3.913052912567e-11       4.581751414606e-12      -5.813710014526e-15 
   60       2.170040749032e-10       2.784699338157e-14      -2.512817359432e-13       1.529883665794e-16       3.766886656690e-11       4.430214772237e-12      -6.436167578638e-15 
   61       2.198908101354e-10       2.925558013416e-14      -2.933902524155e-13       1.581505377049e-16       3.627233094874e-11       4.285119240751e-12      -7.005018821399e-15 
   62       2.228010412793e-10       3.070112521765e-14      -3.372310820244e-13       1.633964005460e-16       3.493954262394e-11       4.146286029631e-12      -7.494615274850e-15 
   63       2.257372808585e-10       3.218296619961e-14      -3.828004291988e-13       1.687260531248e-16       3.367057333173e-11       4.013709092368e-12      -7.907862900739e-15 
   64       2.287014854648e-10       3.370034968750e-14      -4.300929071024e-13       1.741396302726e-16       3.246403751711e-11       3.887228249677e-12      -8.248942302100e-15 
   65       2.316950112470e-10       3.525242894644e-14      -4.791015495160e-13       1.796373055494e-16       3.131700935455e-11       3.766520403780e-12      -8.523371235389e-15 
   66       2.347185693997e-10       3.683826151700e-14      -5.298178227182e-13       1.852192931632e-16       3.022493977171e-11       3.651090752687e-12      -8.738067122626e-15 
   67       2.377721816525e-10       3.845680683310e-14      -5.822316373678e-13       1.908858498886e-16       2.918157347310e-11       3.540264004475e-12      -8.901409563531e-15 
   68       2.408556420837e-10       4.010703377676e-14      -6.363307593584e-13       1.966372652476e-16       2.818061977176e-11       3.433373663582e-12      -9.022551544852e-15 
   69       2.439701107206e-10       4.178827397481e-14      -6.920988772033e-13       2.024738254479e-16       2.722134369752e-11       3.330394066308e-12      -9.109051266924e-15 
   70       2.471167643668e-10       4.349993613883e-14      -7.495171625972e-13       2.083958455516e-16       2.630396393751e-11       3.231421217717e-12      -9.168870557566e-15 
   71       2.502962878516e-10       4.524140288396e-14      -8.085648333672e-13       2.144036821577e-16       2.542796182883e-11       3.136482397694e-12      -9.211126238590e-15 
   72       2.535088424685e-10       4.701203115836e-14      -8.692191499827e-13       2.204977350208e-16       2.459204323664e-11       3.045532441003e-12      -9.246133423030e-15 
   73       2.567540344135e-10       4.881115267272e-14      -9.314554120654e-13       2.266784486704e-16       2.379410043231e-11       2.958450017350e-12      -9.285448812383e-15 
   74       2.600308832238e-10       5.063807432976e-14      -9.952469548994e-13       2.329463140298e-16       2.303117397150e-11       2.875033911442e-12      -9.341913993836e-15 
   75       2.633377902158e-10       5.249207865371e-14      -1.060565145942e-12       2.393018700347e-16       2.229941457235e-11       2.794999303045e-12      -9.429698737502e-15 
   76       2.666731864414e-10       5.437226671037e-14      -1.127376578530e-12       2.457456067452e-16       2.159503871863e-11       2.718053004255e-12      -9.560254651413e-15 
   77       2.700376827365e-10       5.627705284818e-14      -1.195634069929e-12       2.522776507037e-16       2.091748091838e-11       2.644143233738e-12      -9.729228574714e-15 
   78       2.734322562244e-10       5.820457817300e-14      -1.265284007764e-12       2.588980248751e-16       2.026674968577e-11       2.573248843263e-12      -9.927230353680e-15 
   79       2.768575882382e-10       6.015285712872e-14      -1.336268947225e-12       2.656067416697e-16       1.964246735372e-11       2.505302334324e-12      -1.014367086851e-14 
   80       2.803140466936e-10       6.211977469691e-14      -1.408527550093e-12       2.724038025417e-16       1.904385232921e-11       2.440187757284e-12      -1.036672146912e-14 
   81       2.838016684606e-10       6.410308359646e-14      -1.481994523784e-12       2.792891975888e-16       1.846970134848e-11       2.377738610514e-12      -1.058327341096e-14 
   82       2.873201417368e-10       6.610040148324e-14      -1.556600560382e-12       2.862629051508e-16       1.791837173234e-11       2.317735739541e-12      -1.077889729085e-14 
   83       2.908687884191e-10       6.810920814968e-14      -1.632272275677e-12       2.933248914086e-16       1.738776364141e-11       2.259905236184e-12      -1.093780248272e-14 
   84       2.944469295516e-10       7.012709445463e-14      -1.708940588605e-12       3.004751252317e-16       1.687583045366e-11       2.203983779768e-12      -1.104611318231e-14 
   85       2.980550898887e-10       7.215256266196e-14      -1.786567589204e-12       3.077136264263e-16       1.638224598130e-11       2.149931708593e-12      -1.110240940457e-14 
   86       3.016939616320e-10       7.418435426373e-14      -1.865124033731e-12       3.150404247876e-16       1.590698239409e-11       2.097751583614e-12      -1.110886721271e-14 
   87       3.053640280858e-10       7.622121145598e-14      -1.944581379983e-12       3.224555454200e-16       1.544979793325e-11       2.047422933846e-12      -1.106811243327e-14 
   88       3.090655524685e-10       7.826187856918e-14      -2.024911868185e-12       3.299590085923e-16       1.501022804266e-11       1.998901288989e-12      -1.098323583318e-14 
   89       3.127985667224e-10       8.030510349860e-14      -2.106088601884e-12       3.375508295928e-16       1.458757650018e-11       1.952117212047e-12      -1.085780829695e-14 
   90       3.165628603250e-10       8.234963913474e-14      -2.188085628842e-12       3.452310185849e-16       1.418090654890e-11       1.906975331951e-12      -1.069589600374e-14 
   91       3.203579690995e-10       8.439424479369e-14      -2.270878021924e-12       3.529995804622e-16       1.378903202841e-11       1.863353376183e-12      -1.050207560455e-14 
   92       3.241831640256e-10       8.643768764754e-14      -2.354441959996e-12       3.608565147034e-16       1.341050850603e-11       1.821101203396e-12      -1.028144939931e-14 
   93       3.280377095134e-10       8.847863461403e-14      -2.438746766852e-12       3.688019319015e-16       1.304397601106e-11       1.780077714204e-12      -1.003916877006e-14 
   94       3.319217069644e-10       9.051530631892e-14      -2.523729482680e-12       3.768364237115e-16       1.268926546556e-11       1.740270034980e-12      -9.778889525032e-15 
   95       3.358353579846e-10       9.254577349204e-14      -2.609316599910e-12       3.849607485341e-16       1.234644303775e-11       1.701690554133e-12      -9.504111218220e-15 
   96       3.397786988356e-10       9.456806179852e-14      -2.695431735302e-12       3.931757212368e-16       1.201546937806e-11       1.664340199681e-12      -9.218656507626e-15 
   97       3.437515929442e-10       9.658015176556e-14      -2.781995600449e-12       4.014822146112e-16       1.169619557686e-11       1.628207991817e-12      -8.926679582303e-15 
   98       3.477537234120e-10       9.857997870921e-14      -2.868925972278e-12       4.098811608295e-16       1.138835912208e-11       1.593270595486e-12      -8.632674589398e-15 
   99       3.517845855247e-10       1.005654326611e-13      -2.956137663551e-12       4.183735529013e-16       1.109157985691e-11       1.559491872947e-12      -8.341484061192e-15 
  100       3.558434792620e-10       1.025343582950e-13      -3.043542493365e-12       4.269604461307e-16       1.080535593740e-11       1.526822436349e-12      -8.058307342149e-15 
  101       3.599295018072e-10       1.044845548541e-13      -3.131049257655e-12       4.356429595727e-16       1.052905979019e-11       1.495199200295e-12      -7.788709015954e-15 
  102       3.640415400565e-10       1.064137760772e-13      -3.218563699695e-12       4.444222774903e-16       1.026193407014e-11       1.464544934416e-12      -7.538627332560e-15 
  103       3.681782631286e-10       1.083197301255e-13      -3.305988480599e-12       4.532996508111e-16       1.000308761798e-11       1.434767815936e-12      -7.314382635227e-15 
  104       3.723384061215e-10       1.102001882178e-13      -3.393229645922e-12       4.622762674831e-16       9.751697488182e-12       1.405782649860e-12      -7.121220816735e-15 
  105       3.765216811692e-10       1.120533274048e-13      -3.480217083857e-12       4.713528404582e-16       9.507654820391e-12       1.377578757852e-12      -6.958701453796e-15 
  106       3.807279760637e-10       1.138774341773e-13      -3.566886788513e-12       4.805299665080e-16       9.270999085884e-12       1.350160468710e-12      -6.824699487015e-15 
  107       3.849570697606e-10       1.156708010010e-13      -3.653174651986e-12       4.898082523706e-16       9.041718052109e-12       1.323526062888e-12      -6.716806980080e-15 
