# dimensionless total lensed [l(l+1)/2pi] C_l's
# for l=2 to 2500, i.e. number of multipoles equal to 2499
#
# -> if you prefer output in CAMB/HealPix/LensPix units/order, set 'format' to 'camb' in input file
# -> if you don't want to see such a header, set 'headers' to 'no' in input file
# -> for CMB lensing (phi), these are C_l^phi-phi for the lensing potential.
#    Remember the conversion factors:
#    C_l^dd (deflection) = l(l+1) C_l^phi-phi
#    C_l^gg (shear/convergence) = 1/4 (l(l+1))^2 C_l^phi-phi
#
# 1:l     2:TT                     3:EE                     4:TE                     5:BB                     6:phiphi                 7:TPhi                   8:Ephi               
    2       1.494982529944e-10       7.314421361029e-15       4.823205852580e-13       2.370326300367e-19       8.827794335571e-09       4.853767917958e-10      -2.513748776555e-12 
    3       1.409220541706e-10       1.238714324438e-14       6.068333333803e-13       4.742960995221e-19       5.416996959928e-09       3.460474074932e-10      -2.211422306800e-12 
    4       1.324578311452e-10       1.446428793456e-14       6.277187531853e-13       7.909983437415e-19       3.765932216391e-09       2.634522541786e-10      -1.764203083472e-12 
    5       1.257492048901e-10       1.337658077297e-14       5.878088475669e-13       1.187424829332e-18       2.811490229891e-09       2.090662439246e-10      -1.309501453012e-12 
    6       1.208060048205e-10       1.032102212971e-14       5.171833232337e-13       1.663913924586e-18       2.196561797870e-09       1.707229550253e-10      -8.948267881872e-13 
    7       1.173313378398e-10       6.839661445922e-15       4.362581706580e-13       2.220845678404e-18       1.772425640833e-09       1.424106608203e-10      -5.443429615069e-13 
    8       1.150068027621e-10       4.040895986501e-15       3.573211084847e-13       2.858629386085e-18       1.464930922860e-09       1.207771272625e-10      -2.688482631176e-13 
    9       1.135873659139e-10       2.335582905587e-15       2.876509087668e-13       3.577690433520e-18       1.233350687618e-09       1.037980258760e-10      -6.998395813640e-14 
   10       1.128582248397e-10       1.571740761244e-15       2.313071052158e-13       4.378456938405e-18       1.053822327956e-09       9.021410308713e-11       5.757039521876e-14 
   11       1.126799067464e-10       1.346963632584e-15       1.899858551681e-13       5.261346713085e-18       8.887242484605e-10       7.948277879428e-11       1.234089727873e-13 
   12       1.129427325061e-10       1.290419004784e-15       1.633962660980e-13       6.226755058335e-18       7.765599505705e-10       7.026033511095e-11       1.421981901300e-13 
   13       1.135281715317e-10       1.203836772081e-15       1.497908665825e-13       7.275043861369e-18       6.844861719313e-10       6.272670182738e-11       1.277412062380e-13 
   14       1.143374022350e-10       1.058960250723e-15       1.465919447542e-13       8.406532416166e-18       6.078784154787e-10       5.619706130652e-11       9.280967462316e-14 
   15       1.153766967403e-10       9.156083628658e-16       1.508031534431e-13       9.621490312013e-18       5.433953275479e-10       5.074193125369e-11       4.964312010530e-14 
   16       1.166051770120e-10       8.351729147449e-16       1.593567507019e-13       1.092013264994e-17       4.885697678015e-10       4.611651400245e-11       7.320722687595e-15 
   17       1.179433150804e-10       8.351630594961e-16       1.697183929173e-13       1.230261775005e-17       4.415382789690e-10       4.212150360759e-11      -2.783333625908e-14 
   18       1.193924995311e-10       8.880390497619e-16       1.801375000902e-13       1.376904618987e-17       4.007168521960e-10       3.857293194905e-11      -5.227207707532e-14 
   19       1.209605532635e-10       9.610173736980e-16       1.896258806880e-13       1.531946966406e-17       3.654577187690e-10       3.544131610979e-11      -6.508757495906e-14 
   20       1.225931081619e-10       1.020541780650e-15       1.973709174128e-13       1.695388277449e-17       3.344025353758e-10       3.267327665914e-11      -6.707322973517e-14 
   21       1.243019753378e-10       1.069652241374e-15       2.034420625233e-13       1.867224811408e-17       3.070638574664e-10       3.022488308278e-11      -6.036325590617e-14 
   22       1.260862283905e-10       1.126618267591e-15       2.083088656669e-13       2.047448645758e-17       2.827878701370e-10       2.801525969318e-11      -4.831795612764e-14 
   23       1.279351405470e-10       1.210721659261e-15       2.124584089514e-13       2.236050658625e-17       2.612410743044e-10       2.601359898231e-11      -3.391119623016e-14 
   24       1.298169082281e-10       1.340381052139e-15       2.164487434220e-13       2.433019543252e-17       2.419256749813e-10       2.418636550706e-11      -2.027368943892e-14 
   25       1.317484209265e-10       1.516066508983e-15       2.207369231066e-13       2.638345286432e-17       2.246147843107e-10       2.254231050757e-11      -9.253042704496e-15 
   26       1.337419141980e-10       1.730892807148e-15       2.257095162371e-13       2.852017962136e-17       2.089953915134e-10       2.108301669468e-11      -2.179784520674e-15 
   27       1.357783716604e-10       1.978436437019e-15       2.313861881836e-13       3.074030780682e-17       1.948802423125e-10       1.977547036983e-11       7.663752896727e-16 
   28       1.378219837261e-10       2.252231823528e-15       2.376053506013e-13       3.304379319228e-17       1.820260569234e-10       1.856902684179e-11      -1.144651918708e-17 
   29       1.398824645394e-10       2.551733401010e-15       2.440951177071e-13       3.543065037771e-17       1.703672781325e-10       1.745950093448e-11      -3.705326811184e-15 
   30       1.419740958068e-10       2.878111431720e-15       2.504616275017e-13       3.790093313920e-17       1.597788131682e-10       1.644849654394e-11      -9.090960363382e-15 
   31       1.441008127283e-10       3.231917002318e-15       2.562233469280e-13       4.045473436017e-17       1.500447945983e-10       1.552828583294e-11      -1.473388566420e-14 
   32       1.462656833422e-10       3.611017804705e-15       2.609615829341e-13       4.309220959396e-17       1.411150314417e-10       1.468956088983e-11      -1.977258627008e-14 
   33       1.484622563352e-10       4.011788816554e-15       2.642138405715e-13       4.581357071376e-17       1.329264490339e-10       1.391465885012e-11      -2.340210877439e-14 
   34       1.506778607506e-10       4.431105043104e-15       2.655384110083e-13       4.861907971640e-17       1.253645412408e-10       1.318198586686e-11      -2.488438176400e-14 
   35       1.529189285300e-10       4.871663158474e-15       2.648955520027e-13       5.150903052428e-17       1.183906665480e-10       1.249209569620e-11      -2.432188660669e-14 
   36       1.551928700704e-10       5.338590961078e-15       2.624028379598e-13       5.448376870078e-17       1.119489405326e-10       1.184986651657e-11      -2.216542516484e-14 
   37       1.575017290941e-10       5.837187211030e-15       2.582179239865e-13       5.754367652424e-17       1.059555978515e-10       1.125726430933e-11      -1.896950992675e-14 
   38       1.598460064094e-10       6.369704652129e-15       2.524649911497e-13       6.068908992862e-17       1.003951902587e-10       1.071318036745e-11      -1.521153044275e-14 
   39       1.622208677576e-10       6.937549049679e-15       2.452897232924e-13       6.392035942685e-17       9.525010546987e-11       1.021299210609e-11      -1.142787353903e-14 
   40       1.646142349803e-10       7.542138915789e-15       2.368824996126e-13       6.723787542907e-17       9.047130368223e-11       9.748192297088e-12      -8.271664853185e-15 
   41       1.670123677229e-10       8.184657991074e-15       2.274234297257e-13       7.064203000444e-17       8.599541065735e-11       9.309093933538e-12      -6.348414935541e-15 
   42       1.694204554668e-10       8.865219112113e-15       2.168894123856e-13       7.413308143774e-17       8.180927984895e-11       8.894781461007e-12      -5.641238623366e-15 
   43       1.718475655014e-10       9.583425823223e-15       2.051888377311e-13       7.771124961283e-17       7.790183284823e-11       8.505854528723e-12      -5.910688319682e-15 
   44       1.743006933694e-10       1.033857704432e-14       1.922126187489e-13       8.137675244951e-17       7.424468572238e-11       8.141566038934e-12      -6.845698761140e-15 
   45       1.767844445075e-10       1.112993068467e-14       1.778388771723e-13       8.512976887259e-17       7.080229428476e-11       7.800277920451e-12      -8.107453232017e-15 
   46       1.793005796185e-10       1.195763160780e-14       1.619516418163e-13       8.897031550570e-17       6.756925361737e-11       7.481262602487e-12      -9.487439492434e-15 
   47       1.818478902081e-10       1.282202994826e-14       1.444255963546e-13       9.289833240017e-17       6.454180589195e-11       7.183244007937e-12      -1.078883686250e-14 
   48       1.844219875976e-10       1.372342125597e-14       1.251197242465e-13       9.691371398387e-17       6.170658969334e-11       6.903792994593e-12      -1.178040768610e-14 
   49       1.870150390616e-10       1.466204442401e-14       1.038763908107e-13       1.010163065331e-16       5.903992581645e-11       6.639244958973e-12      -1.219469702671e-14 
   50       1.896189789179e-10       1.563808934030e-14       8.056385251793e-14       1.052059019941e-16       5.651495073116e-11       6.385769423711e-12      -1.181356642570e-14 
   51       1.922367815064e-10       1.665172709851e-14       5.521951743056e-14       1.094822233340e-16       5.412695663698e-11       6.143112226828e-12      -1.075634268561e-14 
   52       1.948737920306e-10       1.770308440566e-14       2.794398449831e-14       1.138449308437e-16       5.187369513600e-11       5.911726680605e-12      -9.266771880693e-15 
   53       1.975344210893e-10       1.879223299873e-14      -1.137885956768e-15       1.182936228058e-16       4.974779401221e-11       5.691682850980e-12      -7.634776061559e-15 
   54       2.002220443417e-10       1.991918803005e-14      -3.187584653260e-14       1.228278327938e-16       4.773641233040e-11       5.482639372366e-12      -6.198762789192e-15 
   55       2.029390419282e-10       2.108392602899e-14      -6.413019899615e-14       1.274470813768e-16       4.582515950410e-11       5.284036582735e-12      -5.266324882043e-15 
   56       2.056871580619e-10       2.228644771104e-14      -9.789263610628e-14       1.321510524563e-16       4.401178272846e-11       5.095796683294e-12      -4.847979560235e-15 
   57       2.084670550224e-10       2.352672794375e-14      -1.331934477284e-13       1.369394560059e-16       4.229527567827e-11       4.917748144951e-12      -4.861329718927e-15 
   58       2.112780884004e-10       2.480469670421e-14      -1.700674003588e-13       1.418119769385e-16       4.067173756707e-11       4.749400490614e-12      -5.206027370103e-15 
   59       2.141182122079e-10       2.612023822717e-14      -2.085540553892e-13       1.467682745260e-16       3.913419437471e-11       4.589924732885e-12      -5.762903574531e-15 
   60       2.169838839875e-10       2.747319015315e-14      -2.486980873712e-13       1.518079818193e-16       3.767242007500e-11       4.438133811748e-12      -6.393098373713e-15 
   61       2.198715574080e-10       2.886329339861e-14      -2.905405285034e-13       1.569307833667e-16       3.627577683474e-11       4.292801864841e-12      -6.966692192194e-15 
   62       2.227827662207e-10       3.029003054481e-14      -3.340894855542e-13       1.621366700679e-16       3.494288501694e-11       4.153750037027e-12      -7.458078271179e-15 
   63       2.257200182609e-10       3.175274949684e-14      -3.793433848913e-13       1.674257407555e-16       3.367381635687e-11       4.020970787942e-12      -7.870551074640e-15 
   64       2.286852650196e-10       3.325070719298e-14      -4.262994960127e-13       1.727981308106e-16       3.246718518387e-11       3.894301928981e-12      -8.208758529936e-15 
   65       2.316798571242e-10       3.478306718925e-14      -4.749539619079e-13       1.782540140669e-16       3.132006543857e-11       3.773417811892e-12      -8.478768019115e-15 
   66       2.347044998169e-10       3.634889724402e-14      -5.253018294183e-13       1.837936047152e-16       3.022790769021e-11       3.657820517364e-12      -8.688132370210e-15 
   67       2.377592084347e-10       3.794716690253e-14      -5.773370795973e-13       1.894171592071e-16       2.918445615395e-11       3.546831043619e-12      -8.845955848538e-15 
   68       2.408437710079e-10       3.957685009018e-14      -6.310511115887e-13       1.951249666559e-16       2.818341966130e-11       3.439779524830e-12      -8.962069075865e-15 
   69       2.439593444204e-10       4.123726243099e-14      -6.864277696621e-13       2.009173135212e-16       2.722406323172e-11       3.336640339755e-12      -9.044212141285e-15 
   70       2.471071031808e-10       4.292778825361e-14      -7.434473584349e-13       2.067945151563e-16       2.630660563263e-11       3.237510454914e-12      -9.100396641547e-15 
   71       2.502877299343e-10       4.464778189551e-14      -8.020880911715e-13       2.127569282600e-16       2.543052823250e-11       3.142418126758e-12      -9.139788678391e-15 
   72       2.535013839125e-10       4.639656797322e-14      -8.623260805915e-13       2.188049524866e-16       2.459453687629e-11       3.051319180527e-12      -9.172752060273e-15 
   73       2.567476693820e-10       4.817344165253e-14      -9.241353296788e-13       2.249390320557e-16       2.379652376085e-11       2.964093289127e-12      -9.210891504104e-15 
   74       2.600256040940e-10       4.997766891873e-14      -9.874877224894e-13       2.311596573623e-16       2.303352931040e-11       2.880540251989e-12      -9.267095836969e-15 
   75       2.633335877333e-10       5.180848684677e-14      -1.052353014960e-12       2.374673665870e-16       2.230170405189e-11       2.800376273941e-12      -9.355581197867e-15 
   76       2.666700518077e-10       5.366496560023e-14      -1.118696661827e-12       2.438626491758e-16       2.159726427568e-11       2.723308932860e-12      -9.487814093726e-15 
   77       2.700356158774e-10       5.554556477786e-14      -1.186472860202e-12       2.503456324029e-16       2.091964448433e-11       2.649286090949e-12      -9.659326764926e-15 
   78       2.734312690299e-10       5.744849627971e-14      -1.255630214864e-12       2.569163403103e-16       2.026885321420e-11       2.578285823970e-12      -9.860564856608e-15 
   79       2.768577060293e-10       5.937185287762e-14      -1.326113736920e-12       2.635747863721e-16       1.964451278966e-11       2.510239685736e-12      -1.008075365376e-14 
   80       2.803153097389e-10       6.131360565008e-14      -1.397864790237e-12       2.703209730911e-16       1.904584157688e-11       2.445030600561e-12      -1.030785679602e-14 
   81       2.838041335443e-10       6.327160141705e-14      -1.470821037880e-12       2.771548915976e-16       1.847163623763e-11       2.382490755699e-12      -1.052853499248e-14 
   82       2.873238837758e-10       6.524356017485e-14      -1.544916388551e-12       2.840765212464e-16       1.792025398306e-11       2.322399493793e-12      -1.072810473651e-14 
   83       2.908739021314e-10       6.722707253095e-14      -1.620080943017e-12       2.910858292149e-16       1.738959482755e-11       2.264481205316e-12      -1.089049702052e-14 
   84       2.944535258940e-10       6.921982721766e-14      -1.696248548704e-12       2.981827850375e-16       1.687761200712e-11       2.208471064975e-12      -1.100159454328e-14 
   85       2.980632757001e-10       7.122034258784e-14      -1.773381019741e-12       3.053674078592e-16       1.638397933007e-11       2.154329378683e-12      -1.105996942453e-14 
   86       3.017038333667e-10       7.322735224643e-14      -1.851447852544e-12       3.126397263145e-16       1.590866898617e-11       2.102059071890e-12      -1.106785815813e-14 
   87       3.053756705411e-10       7.523958703614e-14      -1.930419047874e-12       3.199997641382e-16       1.545143921937e-11       2.051640051958e-12      -1.102795665727e-14 
   88       3.090790374734e-10       7.725577633919e-14      -2.010265185137e-12       3.274475400142e-16       1.501182545831e-11       2.003028240846e-12      -1.094343575072e-14 
   89       3.128139517888e-10       7.927464937903e-14      -2.090957496694e-12       3.349830674243e-16       1.458913144688e-11       1.956154607782e-12      -1.081795667897e-14 
   90       3.165801872595e-10       8.129493652202e-14      -2.172467942158e-12       3.426063544968e-16       1.418242037468e-11       1.910924201947e-12      -1.065568659045e-14 
   91       3.203772625771e-10       8.331537057922e-14      -2.254769282706e-12       3.503174038555e-16       1.379050600758e-11       1.867215185154e-12      -1.046131403770e-14 
   92       3.242044301248e-10       8.533468810804e-14      -2.337835155377e-12       3.581162124683e-16       1.341194381823e-11       1.824877864523e-12      -1.024006447359e-14 
   93       3.280609390555e-10       8.735153244844e-14      -2.421632752376e-12       3.660028877818e-16       1.304537374480e-11       1.783771507040e-12      -9.997200342674e-15 
   94       3.319468941747e-10       8.936414332221e-14      -2.506099438118e-12       3.739780164317e-16       1.269062670149e-11       1.743883217957e-12      -9.736401691107e-15 
   95       3.358625060755e-10       9.137062273891e-14      -2.591162736400e-12       3.820423509651e-16       1.234776886289e-11       1.705225236422e-12      -9.461169517992e-15 
   96       3.398078209802e-10       9.336902905523e-14      -2.676747385212e-12       3.901966999211e-16       1.201676087540e-11       1.667798304009e-12      -9.175327787288e-15 
   97       3.437827132780e-10       9.535737692784e-14      -2.762775309530e-12       3.984419292764e-16       1.169745381452e-11       1.631591216021e-12      -8.883031849126e-15 
   98       3.477868780624e-10       9.733363726623e-14      -2.849165594112e-12       4.067789638900e-16       1.138958514211e-11       1.596580372793e-12      -8.588776861122e-15 
   99       3.518198236690e-10       9.929573718555e-14      -2.935834456288e-12       4.152087889482e-16       1.109277466365e-11       1.562729331002e-12      -8.297406209695e-15 
  100       3.558808642127e-10       1.012415599594e-13      -3.022695218760e-12       4.237324514099e-16       1.080652048549e-11       1.529988354965e-12      -8.014119931376e-15 
  101       3.599691121255e-10       1.031689449729e-13      -3.109658282391e-12       4.323510614513e-16       1.053019497210e-11       1.498293967949e-12      -7.744483134126e-15 
  102       3.640834706942e-10       1.050756876751e-13      -3.196631099002e-12       4.410657939108e-16       1.026304070339e-11       1.467568503474e-12      -7.494434418646e-15 
  103       3.682226265976e-10       1.069595395324e-13      -3.283518144166e-12       4.498778897348e-16       1.000416643189e-11       1.437719656617e-12      -7.270294299693e-15 
  104       3.723853297516e-10       1.088183121469e-13      -3.370227094036e-12       4.587885272848e-16       9.752749131882e-12       1.408661874494e-12      -7.077308026683e-15 
  105       3.765712919691e-10       1.106502057346e-13      -3.456688364712e-12       4.677984133527e-16       9.508679938476e-12       1.380384784957e-12      -6.915031725838e-15 
  106       3.807803963490e-10       1.124535251384e-13      -3.542838173926e-12       4.769081393343e-16       9.271998334865e-12       1.352893218157e-12      -6.781335791348e-15 
  107       3.850124165559e-10       1.142265807091e-13      -3.628612613186e-12       4.861183064480e-16       9.042692095878e-12       1.326185986624e-12      -6.673807237917e-15 
