# dimensionless total [l(l+1)/2pi] C_l's
# for l=2 to 3000, i.e. number of multipoles equal to 2999
#
# -> if you prefer output in CAMB/HealPix/LensPix units/order, set 'format' to 'camb' in input file
# -> if you don't want to see such a header, set 'headers' to 'no' in input file
# -> for CMB lensing (phi), these are C_l^phi-phi for the lensing potential.
#    Remember the conversion factors:
#    C_l^dd (deflection) = l(l+1) C_l^phi-phi
#    C_l^gg (shear/convergence) = 1/4 (l(l+1))^2 C_l^phi-phi
#
# 1:l     2:TT                     3:EE                     4:TE                     5:BB                     6:phiphi                 7:TPhi                   8:Ephi               
    2       1.494877708526e-10       7.298833461200e-15       4.817206426913e-13       0.000000000000e+00       8.820525139485e-09       4.854890838415e-10      -2.511548685839e-12 
    3       1.409143524125e-10       1.236034812437e-14       6.061995649477e-13       0.000000000000e+00       5.421685326880e-09       3.460278125729e-10      -2.208999987711e-12 
    4       1.324542921927e-10       1.443143127759e-14       6.270426706274e-13       0.000000000000e+00       3.767293675386e-09       2.633962091967e-10      -1.762137047642e-12 
    5       1.257487783626e-10       1.334491734932e-14       5.871520999181e-13       0.000000000000e+00       2.811486756459e-09       2.090154075998e-10      -1.307917003758e-12 
    6       1.208074676180e-10       1.029561488225e-14       5.166020846360e-13       0.000000000000e+00       2.196123187724e-09       1.706923687293e-10      -8.936819658478e-13 
    7       1.173339392617e-10       6.821750824121e-15       4.357881983904e-13       0.000000000000e+00       1.771931449853e-09       1.424027370906e-10      -5.435982751091e-13 
    8       1.150099753992e-10       4.028994827916e-15       3.569618127546e-13       0.000000000000e+00       1.464666107913e-09       1.207772680600e-10      -2.684415713368e-13 
    9       1.135900877445e-10       2.327128022543e-15       2.873850542420e-13       0.000000000000e+00       1.233435400016e-09       1.037901415635e-10      -6.983555746620e-14 
   10       1.128604765966e-10       1.564456135472e-15       2.311359263174e-13       0.000000000000e+00       1.054183787816e-09       9.019959447544e-11       5.755298347326e-14 
   11       1.126811328644e-10       1.339468945567e-15       1.898894305523e-13       0.000000000000e+00       8.887248610874e-10       7.947790840459e-11       1.233191918098e-13 
   12       1.129426945312e-10       1.282159625012e-15       1.633742551556e-13       0.000000000000e+00       7.765606866993e-10       7.025351976579e-11       1.421094796359e-13 
   13       1.135270231247e-10       1.194690204577e-15       1.498200164632e-13       0.000000000000e+00       6.844869870769e-10       6.271836254973e-11       1.276909418607e-13 
   14       1.143345945279e-10       1.048954828052e-15       1.466111255557e-13       0.000000000000e+00       6.078792923272e-10       5.618807909948e-11       9.279818402392e-14 
   15       1.153726810302e-10       9.047210656732e-16       1.508035494749e-13       0.000000000000e+00       5.433961652056e-10       5.073313644080e-11       4.965366029756e-14 
   16       1.165995515858e-10       8.232061696071e-16       1.593773039331e-13       0.000000000000e+00       4.885705483280e-10       4.610871368176e-11       7.345723664242e-15 
   17       1.179355952106e-10       8.218250973989e-16       1.697699355149e-13       0.000000000000e+00       4.415390214554e-10       4.211551356101e-11      -2.778492622587e-14 
   18       1.193827308589e-10       8.732231924144e-16       1.801882178281e-13       0.000000000000e+00       4.007174698706e-10       3.856921874746e-11      -5.219012037472e-14 
   19       1.209487796431e-10       9.447117179008e-16       1.896588820469e-13       0.000000000000e+00       3.654584670000e-10       3.543965534159e-11      -6.497909060938e-14 
   20       1.225791739601e-10       1.002773563361e-15       1.974036549621e-13       0.000000000000e+00       3.344033004700e-10       3.267265717206e-11      -6.696688994322e-14 
   21       1.242857148532e-10       1.050419986478e-15       2.034924627927e-13       0.000000000000e+00       3.070645436128e-10       3.022405090042e-11      -6.028692130830e-14 
   22       1.260675318437e-10       1.105866187926e-15       2.083820870944e-13       0.000000000000e+00       2.827885225380e-10       2.801308236242e-11      -4.828744745919e-14 
   23       1.279139375837e-10       1.188379173556e-15       2.125485646153e-13       0.000000000000e+00       2.612417274108e-10       2.600975858229e-11      -3.392390454169e-14 
   24       1.297931528190e-10       1.316365463406e-15       2.165413384722e-13       0.000000000000e+00       2.419263069538e-10       2.418162936383e-11      -2.030683262528e-14 
   25       1.317220323481e-10       1.490236727967e-15       2.208255448528e-13       0.000000000000e+00       2.246153806760e-10       2.253787163456e-11      -9.281101092968e-15 
   26       1.337127566223e-10       1.703049222085e-15       2.258035082716e-13       0.000000000000e+00       2.089959630400e-10       2.108010508782e-11      -2.182298581507e-15 
   27       1.357462942477e-10       1.948429810777e-15       2.315115058522e-13       0.000000000000e+00       1.948807963654e-10       1.977447738656e-11       7.990235123496e-16 
   28       1.377868453118e-10       2.219996372177e-15       2.377985463890e-13       0.000000000000e+00       1.820265893902e-10       1.856928550155e-11       5.280690518914e-17 
   29       1.398441938180e-10       2.517221053275e-15       2.443655121209e-13       0.000000000000e+00       1.703677856399e-10       1.746029423934e-11      -3.619092408803e-15 
   30       1.419327255320e-10       2.841271124853e-15       2.507717040576e-13       0.000000000000e+00       1.597792975778e-10       1.644943523675e-11      -8.996805119309e-15 
   31       1.440564605843e-10       3.192692863537e-15       2.564950292678e-13       0.000000000000e+00       1.500452626773e-10       1.552932277315e-11      -1.464893451031e-14 
   32       1.462183813015e-10       3.569348177013e-15       2.611479756762e-13       0.000000000000e+00       1.411154887348e-10       1.469063723352e-11      -1.970853307862e-14 
   33       1.484118709485e-10       3.967604467552e-15       2.643313342690e-13       0.000000000000e+00       1.329268972685e-10       1.391558126164e-11      -2.336091940543e-14 
   34       1.506241073996e-10       4.384331799715e-15       2.656624233459e-13       0.000000000000e+00       1.253649782984e-10       1.318245433056e-11      -2.485857498078e-14 
   35       1.528615874855e-10       4.822241232897e-15       2.650844842808e-13       0.000000000000e+00       1.183910904792e-10       1.249193126004e-11      -2.430501644511e-14 
   36       1.551318731040e-10       5.286483752557e-15       2.626681570500e-13       0.000000000000e+00       1.119493509291e-10       1.184911274639e-11      -2.215596318925e-14 
   37       1.574371539252e-10       5.782378896053e-15       2.585251583130e-13       0.000000000000e+00       1.059559957932e-10       1.125617720645e-11      -1.897057027241e-14 
   38       1.597779287446e-10       6.312173312913e-15       2.527788019786e-13       0.000000000000e+00       1.003955769489e-10       1.071200385168e-11      -1.522523200642e-14 
   39       1.621493089749e-10       6.877256040497e-15       2.455892604461e-13       0.000000000000e+00       9.525048174807e-11       1.021187730218e-11      -1.145330189302e-14 
   40       1.645391465886e-10       7.479024402655e-15       2.371652891666e-13       0.000000000000e+00       9.047166987355e-11       9.747172036973e-12      -8.304217550741e-15 
   41       1.669336340967e-10       8.118640707224e-15       2.277046250520e-13       0.000000000000e+00       8.599576656341e-11       9.308089627212e-12      -6.380363665273e-15 
   42       1.693379610844e-10       8.796211115183e-15       2.171846982467e-13       0.000000000000e+00       8.180962524565e-11       8.893723849024e-12      -5.666515718793e-15 
   43       1.717612169092e-10       9.511336641538e-15       2.055087951123e-13       0.000000000000e+00       7.790216762225e-11       8.504724752975e-12      -5.926755892673e-15 
   44       1.742104239066e-10       1.026331375302e-14       1.925614491411e-13       0.000000000000e+00       7.424500986808e-11       8.140406462251e-12      -6.854324253101e-15 
   45       1.766902149387e-10       1.105140098972e-14       1.782144133539e-13       0.000000000000e+00       7.080260788963e-11       7.799187487136e-12      -8.114313364992e-15 
   46       1.792023643707e-10       1.187575698122e-14       1.623498613025e-13       0.000000000000e+00       6.756955681123e-11       7.480338810736e-12      -9.497683814903e-15 
   47       1.817456741757e-10       1.273675174939e-14       1.448418451006e-13       0.000000000000e+00       6.454209881989e-11       7.182563391973e-12      -1.080556168249e-14 
   48       1.843157669726e-10       1.363470431082e-14       1.255486927006e-13       0.000000000000e+00       6.170687249671e-11       6.903406033597e-12      -1.180421885331e-14 
   49       1.869048221920e-10       1.456988079578e-14       1.043120902637e-13       0.000000000000e+00       5.904019861219e-11       6.639170695462e-12      -1.222324840126e-14 
   50       1.895047826801e-10       1.554249451409e-14       8.099996449634e-14       0.000000000000e+00       5.651521362870e-11       6.385993419649e-12      -1.184191094463e-14 
   51       1.921186127189e-10       1.655271053781e-14       5.565098091053e-14       0.000000000000e+00       5.412720988352e-11       6.143596275081e-12      -1.078003766073e-14 
   52       1.947516398143e-10       1.760063911094e-14       2.836768180348e-14       0.000000000000e+00       5.187393916549e-11       5.912409449675e-12      -9.282935642964e-15 
   53       1.974082532070e-10       1.868633206425e-14      -7.227692252710e-16       0.000000000000e+00       4.974802945851e-11       5.692477063363e-12      -7.642387748770e-15 
   54       2.000918033528e-10       1.980978102581e-14      -3.146744372886e-14       0.000000000000e+00       4.773664004074e-11       5.483428863101e-12      -6.198977204388e-15 
   55       2.028046486393e-10       2.097094221302e-14      -6.372426930598e-14       0.000000000000e+00       4.582538049550e-11       5.284683728446e-12      -5.262261184700e-15 
   56       2.055485394079e-10       2.216982212013e-14      -9.748516538827e-14       0.000000000000e+00       4.401199795624e-11       5.096184234048e-12      -4.842743863248e-15 
   57       2.083241532634e-10       2.340640998301e-14      -1.327814940170e-13       0.000000000000e+00       4.229548594626e-11       4.917794989837e-12      -4.857391441612e-15 
   58       2.111308634744e-10       2.468065232531e-14      -1.696492961392e-13       0.000000000000e+00       4.067194348897e-11       4.749067964426e-12      -5.205092504269e-15 
   59       2.139666441907e-10       2.599245220470e-14      -2.081296194045e-13       0.000000000000e+00       3.913439633356e-11       4.589223211707e-12      -5.765781934069e-15 
   60       2.168279756597e-10       2.734166845900e-14      -2.482688459613e-13       0.000000000000e+00       3.767261818065e-11       4.437129597439e-12      -6.399564827703e-15 
   61       2.197113321948e-10       2.872806078679e-14      -2.901096222567e-13       0.000000000000e+00       3.627597094767e-11       4.291610821340e-12      -6.975583463375e-15 
   62       2.226182507963e-10       3.015111228918e-14      -3.336605277918e-13       0.000000000000e+00       3.494307499307e-11       4.152487353601e-12      -7.468171829167e-15 
   63       2.255512372198e-10       3.161016557669e-14      -3.789201488899e-13       0.000000000000e+00       3.367400211776e-11       4.019735235557e-12      -7.880827606527e-15 
   64       2.285122399369e-10       3.310447099660e-14      -4.258859049465e-13       0.000000000000e+00       3.246736672308e-11       3.893172646940e-12      -8.218439935954e-15 
   65       2.315026055709e-10       3.463318416050e-14      -4.745540780349e-13       0.000000000000e+00       3.132024282825e-11       3.772450953856e-12      -8.487357057021e-15 
   66       2.345230343336e-10       3.619536347185e-14      -5.249198425115e-13       0.000000000000e+00       3.022808108792e-11       3.657045756753e-12      -8.695453948408e-15 
   67       2.375735354611e-10       3.778996765357e-14      -5.769772946207e-13       0.000000000000e+00       2.918462580958e-11       3.546247938394e-12      -8.852199967921e-15 
   68       2.406538924042e-10       3.941596128507e-14      -6.307179094829e-13       0.000000000000e+00       2.818358590187e-11       3.439360044146e-12      -8.967748645656e-15 
   69       2.437652674690e-10       4.107266177248e-14      -6.861254828178e-13       0.000000000000e+00       2.722422637378e-11       3.336351640386e-12      -9.049841701807e-15 
   70       2.469088437564e-10       4.275945856514e-14      -7.431802127561e-13       0.000000000000e+00       2.630676595266e-11       3.237321277285e-12      -9.106396330474e-15 
   71       2.500853132152e-10       4.447571165147e-14      -8.018601713462e-13       0.000000000000e+00       2.543068595804e-11       3.142299271727e-12      -9.146469407725e-15 
   72       2.532948451151e-10       4.622075184893e-14      -8.621412939391e-13       0.000000000000e+00       2.459469217670e-11       3.051244006752e-12      -9.180300122753e-15 
   73       2.565370545203e-10       4.799388109395e-14      -9.239973685734e-13       0.000000000000e+00       2.379667673770e-11       2.964038230987e-12      -9.219352609031e-15 
   74       2.598109707629e-10       4.979437273191e-14      -9.874000253602e-13       0.000000000000e+00       2.303367998747e-11       2.880485358092e-12      -9.276358575468e-15 
   75       2.631150059163e-10       5.162147180709e-14      -1.052318725868e-12       0.000000000000e+00       2.230185236480e-11       2.800305766191e-12      -9.365359937562e-15 
   76       2.664476022528e-10       5.347425545760e-14      -1.118718713252e-12       0.000000000000e+00       2.159741008323e-11       2.723211222164e-12      -9.497674027231e-15 
   77       2.698093806132e-10       5.535118406867e-14      -1.186554454559e-12       0.000000000000e+00       2.091978765038e-11       2.649152002965e-12      -9.668845555503e-15 
   78       2.732013283456e-10       5.725046841651e-14      -1.255774977750e-12       0.000000000000e+00       2.026899363126e-11       2.578108324260e-12      -9.869381674913e-15 
   79       2.766241377573e-10       5.917019976519e-14      -1.326325753293e-12       0.000000000000e+00       1.964465038158e-11       2.510014148763e-12      -1.008857800059e-14 
   80       2.800781885114e-10       6.110834728793e-14      -1.398148641726e-12       0.000000000000e+00       1.904597630163e-11       2.444755087687e-12      -1.031447763056e-14 
   81       2.835635300234e-10       6.306275548838e-14      -1.471181841226e-12       0.000000000000e+00       1.847176809016e-11       2.382166302196e-12      -1.053383016611e-14 
   82       2.870798638576e-10       6.503114162195e-14      -1.545359835180e-12       0.000000000000e+00       1.792038299827e-11       2.322030404855e-12      -1.073205073209e-14 
   83       2.906265261237e-10       6.701109311707e-14      -1.620613339750e-12       0.000000000000e+00       1.738972108324e-11       2.264075361083e-12      -1.089317899725e-14 
   84       2.942028502478e-10       6.900029546991e-14      -1.696876748054e-12       0.000000000000e+00       1.687773561848e-11       2.208039524123e-12      -1.100319422852e-14 
   85       2.978093629458e-10       7.099726498546e-14      -1.774111995496e-12       0.000000000000e+00       1.638410041654e-11       2.153883724391e-12      -1.106068165777e-14 
   86       3.014467551635e-10       7.300073334625e-14      -1.852288573066e-12       0.000000000000e+00       1.590878766144e-11       2.101610655937e-12      -1.106786746001e-14 
   87       3.051155082854e-10       7.500942921501e-14      -1.931376454970e-12       0.000000000000e+00       1.545155558955e-11       2.051199913096e-12      -1.102743513467e-14 
   88       3.088158829234e-10       7.702207952948e-14      -2.011346172198e-12       0.000000000000e+00       1.501193962003e-11       2.002607020229e-12      -1.094254092984e-14 
   89       3.125479077067e-10       7.903741079720e-14      -2.092168886080e-12       0.000000000000e+00       1.458924348531e-11       1.955762461471e-12      -1.081682926655e-14 
   90       3.163113680711e-10       8.105415039030e-14      -2.173816461850e-12       0.000000000000e+00       1.418253036148e-11       1.910570710479e-12      -1.065444816300e-14 
   91       3.201057950478e-10       8.307102784032e-14      -2.256261542209e-12       0.000000000000e+00       1.379061399882e-11       1.866909260173e-12      -1.046006465884e-14 
   92       3.239304540534e-10       8.508677613299e-14      -2.339477620884e-12       0.000000000000e+00       1.341204985216e-11       1.824627652486e-12      -1.023888023944e-14 
   93       3.277846059951e-10       8.710003513880e-14      -2.423431775362e-12       0.000000000000e+00       1.304547784374e-11       1.783584226737e-12      -9.996134800296e-15 
   94       3.316683598565e-10       8.910904247810e-14      -2.508061455026e-12       0.000000000000e+00       1.269072888661e-11       1.743764794494e-12      -9.735499698721e-15 
   95       3.355819282104e-10       9.111189833974e-14      -2.593294321712e-12       0.000000000000e+00       1.234786915785e-11       1.705180102566e-12      -9.460470410363e-15 
   96       3.395253589554e-10       9.310665915463e-14      -2.679055252646e-12       0.000000000000e+00       1.201685930613e-11       1.667829258299e-12      -9.174864745336e-15 
   97       3.434985278433e-10       9.509133754723e-14      -2.765266313234e-12       0.000000000000e+00       1.169755040892e-11       1.631699277075e-12      -8.882831251758e-15 
   98       3.475011310069e-10       9.706390228695e-14      -2.851846729861e-12       0.000000000000e+00       1.138967992976e-11       1.596764629819e-12      -8.588857619281e-15 
   99       3.515326774870e-10       9.902227823960e-14      -2.938712862684e-12       0.000000000000e+00       1.109286767550e-11       1.562986790500e-12      -8.297779082633e-15 
  100       3.555924817599e-10       1.009643463188e-13      -3.025778178427e-12       0.000000000000e+00       1.080661175356e-11       1.530313783636e-12      -8.014786825149e-15 
  101       3.596796562651e-10       1.028879434375e-13      -3.112953223179e-12       0.000000000000e+00       1.053028452916e-11       1.498679731796e-12      -7.745436382305e-15 
  102       3.637931039322e-10       1.047908624592e-13      -3.200145595189e-12       0.000000000000e+00       1.026312858258e-11       1.468004403102e-12      -7.495656045260e-15 
  103       3.679315107086e-10       1.066708521496e-13      -3.287259917656e-12       0.000000000000e+00       1.000425266639e-11       1.438192758735e-12      -7.271755264381e-15 
  104       3.720936272062e-10       1.085257203162e-13      -3.374203997066e-12       0.000000000000e+00       9.752833754838e-12       1.409157042484e-12      -7.078969830356e-15 
  105       3.762791730672e-10       1.103536591996e-13      -3.460908304187e-12       0.000000000000e+00       9.508762983852e-12       1.380887422389e-12      -6.916855499280e-15 
  106       3.804880414023e-10       1.121529641517e-13      -3.547309086204e-12       0.000000000000e+00       9.272079837469e-12       1.353390092599e-12      -6.783284883275e-15 
  107       3.847200163376e-10       1.139219354451e-13      -3.633342456460e-12       0.000000000000e+00       9.042772091096e-12       1.326665381151e-12      -6.675847523272e-15 
