# Matter power spectrum P(k) at redshift z=0
# for k=5.33883e-06 to 1.7492 h/Mpc,
# number of wavenumbers equal to 532
#    1:k (h/Mpc)              2:P (Mpc/h)^3        
       5.338830110225e-06       3.792200742005e+02 
       1.481369246713e-05       1.011994194859e+03 
       2.430320278634e-05       1.628928093413e+03 
       3.382115564561e-05       2.237856187277e+03 
       4.338145326235e-05       2.842236954904e+03 
       5.299817267481e-05       3.444238118975e+03 
       6.268563398783e-05       4.045463777652e+03 
       7.245847019390e-05       4.647223689636e+03 
       8.233169908383e-05       5.250657327962e+03 
       9.232079776621e-05       5.856798904207e+03 
       1.024417803209e-04       6.466616172804e+03 
       1.127112791180e-04       7.081034989407e+03 
       1.231466303383e-04       7.700955458290e+03 
       1.337659642336e-04       8.327263945215e+03 
       1.445883006616e-04       8.960841789241e+03 
       1.556336504212e-04       9.602571741541e+03 
       1.669231228884e-04       1.025334341611e+04 
       1.784790404216e-04       1.091405772511e+04 
       1.903250599426e-04       1.158563002383e+04 
       2.024863020164e-04       1.226899301322e+04 
       2.149894876343e-04       1.296509903644e+04 
       2.278630827361e-04       1.367492147514e+04 
       2.411374502880e-04       1.439945585779e+04 
       2.548450094354e-04       1.513972009102e+04 
       2.690204008723e-04       1.589675400329e+04 
       2.837006570796e-04       1.667161808877e+04 
       2.989253754714e-04       1.746539096316e+04 
       3.147368917278e-04       1.827916584597e+04 
       3.311804496634e-04       1.911404489491e+04 
       3.483043628601e-04       1.997113276492e+04 
       3.661601619785e-04       2.085152614352e+04 
       3.848027201382e-04       2.175630258648e+04 
       4.042903470480e-04       2.268650488594e+04 
       4.246848407121e-04       2.364312052490e+04 
       4.460514836061e-04       2.462705989701e+04 
       4.684589683404e-04       2.563912648195e+04 
       4.919792361796e-04       2.667998338809e+04 
       5.166872106238e-04       2.775011471801e+04 
       5.426604078916e-04       2.884978011002e+04 
       5.699784069676e-04       2.997896943297e+04 
       5.987221643126e-04       3.113735120156e+04 
       6.289731627927e-04       3.232421665942e+04 
       6.608123912211e-04       3.353843986845e+04 
       6.943191602686e-04       3.477842975193e+04 
       7.295697722659e-04       3.604209590523e+04 
       7.666360760544e-04       3.732682667862e+04 
       8.055839525221e-04       3.862948201278e+04 
       8.464717902779e-04       3.994639855626e+04 
       8.893490222001e-04       4.127341519680e+04 
       9.342548003141e-04       4.260588305148e+04 
       9.812168868325e-04       4.393885327754e+04 
       1.030250832071e-03       4.526704627176e+04 
       1.081359495198e-03       4.658500404145e+04 
       1.134532942455e-03       4.788721015560e+04 
       1.189748731823e-03       4.916820868581e+04 
       1.246972566196e-03       5.042271545871e+04 
       1.306159272186e-03       5.164571534575e+04 
       1.367254041844e-03       5.283253202285e+04 
       1.430193861717e-03       5.397889929457e+04 
       1.494909048775e-03       5.508100694107e+04 
       1.561324815339e-03       5.613553513181e+04 
       1.629362793893e-03       5.713968065965e+04 
       1.698942465617e-03       5.809116736514e+04 
       1.769982451430e-03       5.898826616791e+04 
       1.842401639454e-03       5.982978146459e+04 
       1.916120136582e-03       6.061504081539e+04 
       1.991060043339e-03       6.134384983466e+04 
       2.067146060001e-03       6.201644802967e+04 
       2.144305938076e-03       6.263342623581e+04 
       2.222470794865e-03       6.319566850172e+04 
       2.301575310484e-03       6.370428547465e+04 
       2.381557826831e-03       6.416054815120e+04 
       2.462360367012e-03       6.456387284144e+04 
       2.543928592072e-03       6.491916124810e+04 
       2.626211709884e-03       6.522649407819e+04 
       2.709162348903e-03       6.548855162223e+04 
       2.792736407390e-03       6.570632373874e+04 
       2.876892886794e-03       6.588274899054e+04 
       2.961593716198e-03       6.601791376492e+04 
       3.046803573257e-03       6.611370404933e+04 
       3.132489705761e-03       6.617315828759e+04 
       3.218621756888e-03       6.619892063821e+04 
       3.305171596358e-03       6.619019396881e+04 
       3.392113158998e-03       6.614939699845e+04 
       3.479422291684e-03       6.607842093576e+04 
       3.567076609204e-03       6.597823439169e+04 
       3.655055359261e-03       6.585100780620e+04 
       3.743339296599e-03       6.569801570579e+04 
       3.831910566066e-03       6.552049939638e+04 
       3.920752594288e-03       6.531987771865e+04 
       4.009849989567e-03       6.509748689100e+04 
       4.099188449562e-03       6.485467205441e+04 
       4.188754676259e-03       6.459253046661e+04 
       4.278536297774e-03       6.431189846011e+04 
       4.368521796483e-03       6.401408896511e+04 
       4.458700443027e-03       6.369966268849e+04 
       4.549062235735e-03       6.337004802581e+04 
       4.639597845039e-03       6.302531045725e+04 
       4.730298562477e-03       6.266765352682e+04 
       4.821156253905e-03       6.229645642508e+04 
       4.912163316571e-03       6.191371240605e+04 
       5.003312639724e-03       6.151913940820e+04 
       5.094597568453e-03       6.111390573320e+04 
       5.186011870488e-03       6.069864285573e+04 
       5.277549705708e-03       6.027370491084e+04 
       5.369205598112e-03       5.984021615921e+04 
       5.460974410059e-03       5.939775781664e+04 
       5.552851318567e-03       5.894756814997e+04 
       5.644831793502e-03       5.849018877629e+04 
       5.736911577496e-03       5.802596307436e+04 
       5.829086667435e-03       5.755538066956e+04 
       5.921353297405e-03       5.707925459707e+04 
       6.013707922947e-03       5.659705441578e+04 
       6.106147206529e-03       5.610984310419e+04 
       6.198668004128e-03       5.561765461583e+04 
       6.291267352825e-03       5.512085552262e+04 
       6.383942459333e-03       5.461992940732e+04 
       6.476690689386e-03       5.411516570087e+04 
       6.569509557903e-03       5.360672607437e+04 
       6.662396719885e-03       5.309488932324e+04 
       6.755349961967e-03       5.258033471970e+04 
       6.848367194583e-03       5.206274973062e+04 
       6.941446444699e-03       5.154284901992e+04 
       7.034585849051e-03       5.102039390979e+04 
       7.127783647869e-03       5.049604864758e+04 
       7.221038179042e-03       4.996990921942e+04 
       7.314347872684e-03       4.944208753757e+04 
       7.407711246076e-03       4.891285165821e+04 
       7.501126898957e-03       4.838254023017e+04 
       7.594593509138e-03       4.785082547932e+04 
       7.688109828402e-03       4.731853466262e+04 
       7.781674678695e-03       4.678555504485e+04 
       7.875286948558e-03       4.625165080163e+04 
       7.968945589802e-03       4.571770788023e+04 
       8.062649614402e-03       4.518350054628e+04 
       8.156398091594e-03       4.464893775881e+04 
       8.250190145159e-03       4.411481067580e+04 
       8.344024950890e-03       4.358060358719e+04 
       8.437901734217e-03       4.304662252282e+04 
       8.531819767982e-03       4.251319524104e+04 
       8.625778370370e-03       4.198058398439e+04 
       8.719776902956e-03       4.144834817136e+04 
       8.813814768889e-03       4.091706775633e+04 
       8.907891411183e-03       4.038660758097e+04 
       9.002006311125e-03       3.985705921383e+04 
       9.096158986775e-03       3.932885055713e+04 
       9.190348991570e-03       3.880186167445e+04 
       9.284575913007e-03       3.827609615116e+04 
       9.378839371424e-03       3.775197193305e+04 
       9.473139018840e-03       3.722926613692e+04 
       9.567474537888e-03       3.670812626411e+04 
       9.661845640803e-03       3.618862926828e+04 
       9.756252068483e-03       3.567106506882e+04 
       9.850693589605e-03       3.515550645811e+04 
       9.945169999807e-03       3.464180008678e+04 
       1.003968112092e-02       3.413001199017e+04 
       1.013422680024e-02       3.362059374215e+04 
       1.022880690987e-02       3.311337878816e+04 
       1.032342134612e-02       3.260832095249e+04 
       1.041807002887e-02       3.210564282409e+04 
       1.051275290109e-02       3.160540400903e+04 
       1.060746992832e-02       3.110796774328e+04 
       1.070222109818e-02       3.061278113132e+04 
       1.079700642002e-02       3.012041985108e+04 
       1.089182592444e-02       2.963088634737e+04 
       1.098667966300e-02       2.914393299525e+04 
       1.108156770783e-02       2.866002966181e+04 
       1.117649015139e-02       2.817900516621e+04 
       1.127144710615e-02       2.770096962967e+04 
       1.136643870438e-02       2.722606614893e+04 
       1.146146509790e-02       2.675319432299e+04 
       1.155652645791e-02       2.628548405932e+04 
       1.165162297479e-02       2.582004142978e+04 
       1.174675485798e-02       2.535709249069e+04 
       1.184192233585e-02       2.489921166436e+04 
       1.193712565556e-02       2.444371389608e+04 
       1.203236508303e-02       2.399196007646e+04 
       1.212764090282e-02       2.354358410697e+04 
       1.222295341814e-02       2.309785612108e+04 
       1.231830295075e-02       2.265669763290e+04 
       1.241368984103e-02       2.221908326141e+04 
       1.250911444795e-02       2.178525327016e+04 
       1.260457714907e-02       2.135608165073e+04 
       1.270007834065e-02       2.092982879889e+04 
       1.279561843765e-02       2.050731600026e+04 
       1.289119787383e-02       2.008802592241e+04 
       1.298681710185e-02       1.967406674531e+04 
       1.308247659337e-02       1.926274503135e+04 
       1.317817683916e-02       1.885622146949e+04 
       1.327391834926e-02       1.845383716130e+04 
       1.336970165314e-02       1.805529464032e+04 
       1.346552729984e-02       1.766090886763e+04 
       1.356139585818e-02       1.727161896451e+04 
       1.365730791695e-02       1.688514044871e+04 
       1.375326408514e-02       1.650326703816e+04 
       1.384926499212e-02       1.612556660870e+04 
       1.394531128798e-02       1.575243524216e+04 
       1.404140364367e-02       1.538365330352e+04 
       1.413754275139e-02       1.501881133609e+04 
       1.423372932479e-02       1.465855704048e+04 
       1.432996409933e-02       1.430361446914e+04 
       1.442624783257e-02       1.395219976751e+04 
       1.452258130453e-02       1.360515607878e+04 
       1.461896531801e-02       1.326235594668e+04 
       1.471540069901e-02       1.292453364429e+04 
       1.481188829703e-02       1.259151706155e+04 
       1.490842898557e-02       1.226220631127e+04 
       1.500502366246e-02       1.193760851948e+04 
       1.510167325034e-02       1.161781359683e+04 
       1.519837869708e-02       1.130318959392e+04 
       1.529514097628e-02       1.099195559378e+04 
       1.539196108774e-02       1.068574972993e+04 
       1.548884005793e-02       1.038437458976e+04 
       1.558577894056e-02       1.008763481850e+04 
       1.568277881710e-02       9.795608442788e+03 
       1.577984079734e-02       9.508416290295e+03 
       1.587696601993e-02       9.225473205315e+03 
       1.597415565306e-02       8.946593003163e+03 
       1.607141089500e-02       8.673218908202e+03 
       1.616873297478e-02       8.404034216143e+03 
       1.626612315283e-02       8.139667592470e+03 
       1.636358272171e-02       7.880254787012e+03 
       1.646111300674e-02       7.625287111078e+03 
       1.655871536680e-02       7.374453239494e+03 
       1.665639119505e-02       7.128771447711e+03 
       1.675414191972e-02       6.888048349144e+03 
       1.685196900490e-02       6.650771701206e+03 
       1.694987395139e-02       6.419242568364e+03 
       1.704785829755e-02       6.191985634197e+03 
       1.714592362019e-02       5.969093625052e+03 
       1.724407153549e-02       5.751244518555e+03 
       1.734230369993e-02       5.537678708709e+03 
       1.744062181128e-02       5.328861683326e+03 
       1.753902760960e-02       5.124169526276e+03 
       1.763752287831e-02       4.924573491475e+03 
       1.773610944521e-02       4.729108110763e+03 
       1.783478918365e-02       4.537948174370e+03 
       1.793356401365e-02       4.351889626000e+03 
       1.803243590309e-02       4.169521977812e+03 
       1.813140686892e-02       3.992302560141e+03 
       1.823047897847e-02       3.819088951434e+03 
       1.832965435070e-02       3.650562076315e+03 
       1.842893515760e-02       3.486152957373e+03 
       1.852832362557e-02       3.326096036703e+03 
       1.862782203687e-02       3.170122396321e+03 
       1.872743273109e-02       3.018768498050e+03 
       1.882715810672e-02       2.871683822895e+03 
       1.892700062275e-02       2.728636238167e+03 
       1.902696280031e-02       2.589700022324e+03 
       1.912704722438e-02       2.455223496289e+03 
       1.922725654556e-02       2.324689296602e+03 
       1.932759348189e-02       2.198206110234e+03 
       1.942806082078e-02       2.075994320660e+03 
       1.952866142093e-02       1.957617016164e+03 
       1.962939821437e-02       1.843310166287e+03 
       1.973027420858e-02       1.732803700712e+03 
       1.983129248866e-02       1.626268196902e+03 
       1.993245621958e-02       1.523583287124e+03 
       2.003376864852e-02       1.424771016799e+03 
       2.013523310731e-02       1.329751651578e+03 
       2.023685301493e-02       1.238433733243e+03 
       2.033863188012e-02       1.150845233864e+03 
       2.044057330407e-02       1.066925844239e+03 
       2.054268098326e-02       9.865291489341e+02 
       2.064495871234e-02       9.097675667822e+02 
       2.074741038718e-02       8.364564656905e+02 
       2.085004000797e-02       7.666158872033e+02 
       2.095285168252e-02       7.003276373069e+02 
       2.105584962964e-02       6.373455636298e+02 
       2.115903818262e-02       5.776145992414e+02 
       2.126242179295e-02       5.212923608659e+02 
       2.136600503407e-02       4.681024079754e+02 
       2.146979260537e-02       4.181229232527e+02 
       2.157378933628e-02       3.712514470414e+02 
       2.167800019057e-02       3.274686657686e+02 
       2.178243027078e-02       2.866558273678e+02 
       2.188708482291e-02       2.488917999412e+02 
       2.199196924125e-02       2.139622157069e+02 
       2.209708907339e-02       1.819655667298e+02 
       2.220245002551e-02       1.527792572366e+02 
       2.230805796785e-02       1.262850261378e+02 
       2.241391894045e-02       1.024853202692e+02 
       2.252003915906e-02       8.135384783839e+01 
       2.262642502146e-02       6.278522492187e+01 
       2.273308311387e-02       4.676328579764e+01 
       2.284002021785e-02       3.317491736752e+01 
       2.294724331729e-02       2.200680665840e+01 
       2.305475960593e-02       1.319339992803e+01 
       2.316257649510e-02       6.666110226818e+00 
       2.327070162181e-02       2.381415174546e+00 
       2.337914285733e-02       2.631623466664e-01 
       2.348790831604e-02       2.581208055825e-01 
       2.359700636478e-02       2.306928659145e+00 
       2.370644563265e-02       6.347653551366e+00 
       2.381623502126e-02       1.232963919171e+01 
       2.392638371548e-02       2.017630479186e+01 
       2.403690119476e-02       2.983788751553e+01 
       2.414779724496e-02       4.123052621993e+01 
       2.425908197085e-02       5.433508283472e+01 
       2.437076580917e-02       6.905389932628e+01 
       2.448285954239e-02       8.533575377677e+01 
       2.459537431324e-02       1.031294020664e+02 
       2.470832163995e-02       1.223322722270e+02 
       2.482171343228e-02       1.429540083822e+02 
       2.493556200847e-02       1.648561862864e+02 
       2.504988011306e-02       1.880296265755e+02 
       2.516468093575e-02       2.123596330453e+02 
       2.527997813124e-02       2.378137267161e+02 
       2.539578584020e-02       2.643266573029e+02 
       2.551211871148e-02       2.918808349371e+02 
       2.562899192550e-02       3.202928590594e+02 
       2.574642121910e-02       3.496323118765e+02 
       2.586442291181e-02       3.797525867704e+02 
       2.598301393358e-02       4.106370675181e+02 
       2.610221185439e-02       4.420882042166e+02 
       2.622203491543e-02       4.742271894570e+02 
       2.634250206236e-02       5.069233128714e+02 
       2.646363298057e-02       5.400915261423e+02 
       2.658544813267e-02       5.736043695425e+02 
       2.670796879837e-02       6.075161561028e+02 
       2.683121711696e-02       6.417260756591e+02 
       2.695521613251e-02       6.761045942332e+02 
       2.707998984216e-02       7.106140586526e+02 
       2.720556324756e-02       7.452413898059e+02 
       2.733196240985e-02       7.799112894682e+02 
       2.745921450840e-02       8.144289888252e+02 
       2.758734790372e-02       8.488803596079e+02 
       2.771639220469e-02       8.831458178368e+02 
       2.784637834080e-02       9.171570808318e+02 
       2.797733863945e-02       9.508239387071e+02 
       2.810930690908e-02       9.841125506831e+02 
       2.824231852849e-02       1.016900493115e+03 
       2.837641054293e-02       1.049187176523e+03 
       2.851162176757e-02       1.080919943234e+03 
       2.864799289913e-02       1.111945759643e+03 
       2.878556663630e-02       1.142163514480e+03 
       2.892438780987e-02       1.171635615595e+03 
       2.906450352359e-02       1.200217975210e+03 
       2.920596330660e-02       1.227835608284e+03 
       2.934881927887e-02       1.254411478868e+03 
       2.949312633078e-02       1.279925252644e+03 
       2.963894231830e-02       1.304238266672e+03 
       2.978632827566e-02       1.327311380578e+03 
       2.993534864699e-02       1.349062058482e+03 
       3.008607153939e-02       1.369438536598e+03 
       3.023856899953e-02       1.388311301426e+03 
       3.039291731658e-02       1.405627262714e+03 
       3.054919735447e-02       1.421384501417e+03 
       3.070749491678e-02       1.435338614862e+03 
       3.086790114840e-02       1.447660806105e+03 
       3.103051297818e-02       1.457949229288e+03 
       3.119543360778e-02       1.466485940122e+03 
       3.136277305242e-02       1.472882789202e+03 
       3.153264874035e-02       1.477186464869e+03 
       3.170518617858e-02       1.479421084414e+03 
       3.188051969384e-02       1.479349994344e+03 
       3.205879325892e-02       1.476896423489e+03 
       3.224016141645e-02       1.472045548540e+03 
       3.242479031374e-02       1.464758245693e+03 
       3.261285886501e-02       1.454864020285e+03 
       3.280456005992e-02       1.442310084436e+03 
       3.300010244046e-02       1.427021389818e+03 
       3.319971177248e-02       1.408932051261e+03 
       3.340363294281e-02       1.387979308348e+03 
       3.361213211851e-02       1.364026425078e+03 
       3.382549921210e-02       1.337057430796e+03 
       3.404405070474e-02       1.306986541768e+03 
       3.426813289023e-02       1.273863802273e+03 
       3.449812561490e-02       1.237528353152e+03 
       3.473444660474e-02       1.197973173924e+03 
       3.497755649041e-02       1.155164106919e+03 
       3.522796466486e-02       1.109072490439e+03 
       3.548623613899e-02       1.059767263889e+03 
       3.575299959843e-02       1.007204710052e+03 
       3.602895691234e-02       9.515858731428e+02 
       3.631489440566e-02       8.928055491740e+02 
       3.661169628260e-02       8.311830390115e+02 
       3.692036068650e-02       7.668209667880e+02 
       3.724201900509e-02       7.000201970392e+02 
       3.757795918795e-02       6.310923412440e+02 
       3.792965404447e-02       5.605264812027e+02 
